EOG,EOG Resources,Energy,3,Oil & Gas Exploration & Production,49146610186,3295042
a1503495000,84,84.16,84,84.16,24109
1,84.15,84.15,84,84,220
2,84.1278,84.19,84.1278,84.185,600
3,84.17,84.17,84.06,84.17,725
4,84.12,84.16,84.03,84.16,3234
5,83.96,84.06,83.96,84.06,6648
6,84.1,84.1,84,84,7660
7,84.19,84.3,84.11,84.11,4400
8,84.26,84.26,84.1752,84.1752,590
9,84.27,84.38,84.26,84.3,3195
10,84.36,84.36,84.2352,84.26,3345
11,84.23,84.28,84.22,84.28,600
12,84.21,84.27,84.2,84.25,1300
13,84.26,84.26,84.18,84.18,700
14,84.26,84.31,84.26,84.26,1800
15,84.21,84.33,84.21,84.26,1301
16,84.12,84.19,84.12,84.19,1912
17,84.1024,84.14,84.09,84.09,469
18,84.18,84.18,84.11,84.11,700
19,84.16,84.21,84.14,84.2,1272
20,84.14,84.16,84.1,84.15,2662
21,84.06,84.12,84.02,84.12,3200
22,84.05,84.06,84.04,84.06,2000
23,84.08,84.12,84.06,84.06,2962
24,84.01,84.06,83.99,84.06,1800
25,83.9751,84.02,83.97,84.02,1677
26,84.05,84.12,83.97,83.97,6786
27,84.09,84.09,84.035,84.09,6802
28,84.06,84.09,84.04,84.09,6585
29,84.14,84.14,84.07,84.07,2700
30,84.09,84.11,84.08,84.1,3883
31,84.17,84.2,84.11,84.11,3286
32,84.22,84.23,84.15,84.17,4150
33,84.25,84.25,84.18,84.22,4967
34,84.27,84.27,84.24,84.26,2372
35,84.22,84.27,84.2,84.27,5704
36,84.19,84.3,84.19,84.27,3502
37,84.19,84.21,84.14,84.18,3700
38,84.195,84.22,84.17,84.19,1905
39,84.2,84.22,84.17,84.18,3000
40,84.24,84.25,84.21,84.22,4474
41,84.2924,84.2924,84.25,84.25,3301
42,84.3,84.3,84.27,84.27,1100
43,84.26,84.27,84.23,84.27,3594
44,84.31,84.35,84.29,84.29,4008
45,84.39,84.41,84.31,84.32,2559
46,84.34,84.4,84.3,84.4,3305
47,84.32,84.33,84.32,84.33,1700
48,84.31,84.31,84.27,84.3,1716
49,84.37,84.3756,84.29,84.29,1900
50,84.41,84.44,84.38,84.38,1330
51,84.36,84.4,84.36,84.39,2805
52,84.3933,84.4,84.37,84.37,1808
53,84.44,84.44,84.36,84.38,1903
54,84.45,84.47,84.43,84.47,1400
55,84.48,84.48,84.4,84.46,3400
56,84.47,84.48,84.47,84.48,700
57,84.45,84.48,84.44,84.45,2510
58,84.43,84.44,84.41,84.44,1970
59,84.41,84.45,84.41,84.44,901
60,84.61,84.61,84.41,84.42,6843
61,84.45,84.64,84.38,84.6,8614
62,84.49,84.54,84.41,84.41,6158
63,84.47,84.52,84.44,84.51,5170
64,84.46,84.51,84.43,84.45,4150
65,84.58,84.58,84.45,84.45,5091
66,84.59,84.66,84.585,84.6,3205
67,84.52,84.56,84.5,84.56,3482
68,84.53,84.57,84.51,84.52,3345
69,84.53,84.54,84.47,84.54,1651
70,84.55,84.55,84.53,84.53,1144
71,84.58,84.62,84.55,84.6,9700
72,84.61,84.63,84.56,84.58,13891
73,84.71,84.75,84.64,84.65,10542
74,84.74,84.75,84.71,84.72,3899
75,84.91,84.91,84.74,84.74,10402
76,84.91,84.93,84.88,84.91,4185
77,84.89,84.94,84.88,84.9,10706
78,84.86,84.91,84.85,84.89,5400
79,84.91,84.91,84.84,84.86,7125
80,84.88,84.95,84.88,84.91,19564
81,84.9,84.92,84.88,84.91,11216
82,84.99,84.99,84.89,84.91,6900
83,84.955,85,84.94,84.98,18432
84,84.99,84.99,84.96,84.96,1492
85,84.99,84.99,84.96,84.99,4101
86,85.07,85.08,85,85,6116
87,85.06,85.1,85.04,85.1,15651
88,85.12,85.16,85.04,85.06,15563
89,85.13,85.13,85.07,85.12,11694
90,85.17,85.18,85.12,85.12,8396
91,85.24,85.29,85.17,85.17,19976
92,85.22,85.25,85.2,85.23,4570
93,85.195,85.21,85.15,85.21,4580
94,85.16,85.1999,85.1575,85.17,1400
95,85.24,85.24,85.15,85.16,3741
96,85.21,85.2399,85.2,85.2399,800
97,85.15,85.22,85.15,85.22,2900
98,85.09,85.14,85.09,85.13,6906
99,85.1,85.12,85.08,85.11,4940
100,85.15,85.16,85.095,85.095,8030
101,85.12,85.17,85.11,85.16,4959
102,84.99,85.11,84.99,85.11,2300
103,84.96,84.98,84.95,84.95,400
104,84.89,84.92,84.89,84.92,1099
105,84.83,84.87,84.8,84.87,3701
106,84.89,84.89,84.84,84.84,2200
107,84.89,84.89,84.85,84.88,3104
108,84.9,84.91,84.89,84.89,2312
109,84.93,84.93,84.91,84.92,1624
110,85,85,84.93,84.93,2555
111,84.97,85.01,84.96,85,3336
112,84.98,85,84.97,84.99,5130
113,84.98,85.03,84.96,85,3904
114,85,85,84.98,84.98,1022
115,84.96,84.97,84.93,84.97,2341
116,85.09,85.12,84.99,84.99,12947
117,85.16,85.2,85.1,85.1,5720
118,85.2,85.2,85.17,85.18,3537
119,85.32,85.34,85.17,85.18,14713
120,85.25,85.35,85.25,85.33,6500
121,85.19,85.24,85.19,85.24,3182
122,85.12,85.19,85.12,85.19,6289
123,85.2,85.26,85.13,85.13,6134
124,85.18,85.21,85.17,85.19,2301
125,85.11,85.2,85.11,85.2,3415
126,85.19,85.19,85.1,85.1,3325
127,85.19,85.2,85.15,85.2,3437
128,85.16,85.23,85.16,85.23,3660
129,85.19,85.2,85.17,85.18,3100
130,85.2,85.2,85.18,85.19,1403
131,85.3,85.33,85.21,85.21,4700
132,85.34,85.34,85.31,85.32,1700
133,85.31,85.33,85.28,85.33,6905
134,85.38,85.38,85.3,85.3,6510
135,85.45,85.45,85.4,85.4,8520
136,85.53,85.53,85.43,85.45,7644
137,85.54,85.58,85.52,85.53,8572
138,85.55,85.57,85.52,85.54,5411
139,85.55,85.59,85.54,85.56,3914
140,85.47,85.55,85.47,85.53,8324
141,85.485,85.5,85.48,85.49,1400
142,85.51,85.51,85.49,85.49,6550
143,85.47,85.51,85.46,85.51,8751
144,85.51,85.51,85.45,85.46,3600
145,85.59,85.59,85.5,85.52,7247
146,85.6,85.6,85.57,85.6,2451
147,85.47,85.59,85.47,85.57,7560
148,85.48,85.48,85.45,85.47,3601
149,85.53,85.53,85.49,85.49,2784
150,85.49,85.515,85.49,85.51,3912
151,85.4,85.48,85.4,85.48,3066
152,85.38,85.39,85.38,85.39,1979
153,85.42,85.43,85.373,85.38,5062
154,85.505,85.505,85.41,85.42,12173
155,85.52,85.58,85.519,85.519,8434
156,85.52,85.54,85.5001,85.52,3400
157,85.54,85.55,85.52,85.53,4500
158,85.56,85.6,85.54,85.55,3751
159,85.58,85.61,85.5701,85.59,7956
160,85.56,85.59,85.55,85.59,6891
161,85.56,85.6,85.55,85.56,2847
162,85.5374,85.5587,85.53,85.5587,2651
163,85.62,85.65,85.54,85.54,11052
164,85.67,85.68,85.62,85.63,5178
165,85.64,85.67,85.64,85.67,700
166,85.6,85.66,85.59,85.66,5019
167,85.57,85.5944,85.57,85.5944,2313
168,85.58,85.58,85.57,85.58,6124
169,85.67,85.7,85.57,85.57,8336
170,85.68,85.7,85.66,85.68,3493
171,85.69,85.69,85.69,85.69,300
172,85.69,85.69,85.675,85.675,1100
173,85.69,85.69,85.66,85.67,2698
174,85.68,85.7,85.6746,85.6746,4868
175,85.69,85.7,85.68,85.6878,4700
176,85.68,85.7,85.67,85.69,5316
177,85.63,85.67,85.59,85.67,8132
178,85.64,85.65,85.63,85.63,2700
179,85.67,85.67,85.63,85.65,6876
180,85.69,85.7,85.64,85.66,5699
181,85.68,85.72,85.67,85.6999,6750
182,85.65,85.66,85.62,85.66,2500
183,85.64,85.65,85.6,85.65,3000
184,85.62,85.6399,85.6,85.6399,750
185,85.63,85.63,85.6189,85.62,1300
186,85.62,85.63,85.6,85.61,17481
187,85.63,85.64,85.61,85.625,2515
188,85.6,85.63,85.6,85.63,1000
189,85.51,85.6,85.51,85.6,5200
190,85.47,85.525,85.46,85.51,3050
191,85.51,85.51,85.475,85.49,3200
192,85.51,85.52,85.51,85.51,3800
193,85.52,85.5299,85.52,85.5299,745
194,85.52,85.52,85.51,85.515,1804
195,85.57,85.58,85.51,85.515,5113
196,85.59,85.59,85.56,85.56,3100
197,85.56,85.6,85.56,85.6,2800
198,85.54,85.56,85.53,85.55,1700
199,85.45,85.54,85.42,85.54,4582
200,85.47,85.48,85.45,85.45,2800
201,85.46,85.47,85.45,85.45,2300
202,85.45,85.46,85.44,85.45,4800
203,85.43,85.4456,85.43,85.4456,400
204,85.45,85.45,85.45,85.45,3700
205,85.45,85.46,85.44,85.44,9698
206,85.44,85.4516,85.44,85.4489,1005
207,85.46,85.46,85.44,85.45,13438
208,85.45,85.47,85.45,85.46,12409
209,85.34,85.45,85.32,85.44,13814
210,85.2954,85.35,85.2954,85.34,2200
211,85.3,85.3,85.28,85.3,2169
212,85.35,85.35,85.293,85.3,2000
213,85.34,85.35,85.34,85.34,1306
214,85.36,85.37,85.33,85.33,2600
215,85.379,85.379,85.3688,85.3688,550
216,85.35,85.375,85.34,85.37,3085
217,85.39,85.39,85.35,85.354,2650
218,85.36,85.37,85.36,85.37,800
219,85.3996,85.4,85.36,85.36,1611
220,85.38,85.41,85.38,85.38,896
221,85.34,85.38,85.33,85.38,4460
222,85.32,85.34,85.31,85.34,3941
223,85.23,85.31,85.23,85.31,1876
224,85.23,85.24,85.21,85.23,4402
225,85.22,85.23,85.215,85.23,6200
226,85.23,85.23,85.2061,85.22,3621
227,85.2471,85.26,85.21,85.23,8529
228,85.3,85.3,85.26,85.26,2167
229,85.3,85.33,85.2801,85.31,8164
230,85.3,85.31,85.29,85.31,4299
231,85.303,85.303,85.27,85.29,2900
232,85.31,85.315,85.3,85.31,1400
233,85.3,85.32,85.28,85.32,6235
234,85.2844,85.3,85.28,85.3,975
235,85.31,85.32,85.28,85.29,3097
236,85.31,85.33,85.3,85.31,6177
237,85.33,85.34,85.31,85.31,3800
238,85.33,85.3497,85.33,85.3497,234
239,85.35,85.35,85.34,85.34,438
240,85.35,85.37,85.35,85.36,1000
241,85.37,85.37,85.36,85.36,500
242,85.39,85.39,85.35,85.36,916
243,85.4,85.4,85.37,85.39,1911
244,85.4,85.41,85.395,85.4,600
245,85.4,85.4,85.4,85.4,200
246,85.45,85.45,85.4,85.4,1818
247,85.48,85.48,85.4599,85.4599,1577
248,85.49,85.49,85.46,85.48,3555
249,85.51,85.51,85.49,85.49,590
250,85.469,85.51,85.469,85.5,3072
251,85.44,85.46,85.4388,85.45,3059
252,85.45,85.46,85.441,85.441,1459
253,85.46,85.46,85.44,85.45,700
254,85.49,85.49,85.46,85.46,1100
255,85.46,85.51,85.46,85.4904,1329
256,85.42,85.44,85.39,85.44,1611
257,85.41,85.41,85.4,85.41,447
258,85.39,85.42,85.39,85.42,1850
259,85.4,85.41,85.39,85.39,600
260,85.38,85.41,85.38,85.41,6533
261,85.37,85.39,85.3653,85.3899,2242
262,85.53,85.53,85.37,85.37,12561
263,85.55,85.55,85.51,85.525,1322
264,85.61,85.61,85.55,85.56,2650
265,85.7,85.7,85.62,85.62,8773
266,85.7099,85.7099,85.69,85.69,200
267,85.71,85.71,85.68,85.68,1200
268,85.65,85.72,85.65,85.7199,4700
269,85.65,85.67,85.65,85.65,1713
270,85.641,85.68,85.64,85.67,1766
271,85.63,85.65,85.62,85.65,2700
272,85.65,85.65,85.64,85.64,411
273,85.59,85.6599,85.54,85.6599,3086
274,85.5556,85.56,85.54,85.56,600
275,85.63,85.64,85.57,85.57,12125
276,85.6,85.62,85.58,85.62,2207
277,85.62,85.65,85.6,85.6,2543
278,85.65,85.65,85.59,85.62,13845
279,85.65,85.67,85.65,85.66,2119
280,85.68,85.68,85.659,85.659,6600
281,85.67,85.71,85.67,85.68,5612
282,85.71,85.71,85.67,85.67,2899
283,85.68,85.7,85.67,85.7,3474
284,85.66,85.66,85.66,85.66,400
285,85.61,85.63,85.59,85.63,1975
286,85.59,85.6,85.59,85.6,1023
287,85.61,85.62,85.61,85.61,1200
288,85.62,85.66,85.6043,85.6043,3853
289,85.62,85.64,85.59,85.62,2299
290,85.63,85.65,85.63,85.65,968
291,85.57,85.62,85.57,85.62,1698
292,85.56,85.57,85.55,85.56,1400
293,85.59,85.59,85.57,85.57,1650
294,85.63,85.63,85.58,85.61,1886
295,85.6134,85.63,85.6006,85.62,2378
296,85.55,85.6,85.5461,85.6,3761
297,85.53,85.57,85.53,85.57,1300
298,85.51,85.52,85.47,85.52,4214
299,85.54,85.54,85.51,85.52,1919
300,85.55,85.55,85.5266,85.5266,851
301,85.54,85.55,85.5204,85.54,1465
302,85.5,85.52,85.48,85.52,2722
303,85.51,85.52,85.49,85.5,4020
304,85.555,85.56,85.53,85.53,600
305,85.54,85.56,85.52,85.55,3978
306,85.54,85.54,85.52,85.54,3611
307,85.5499,85.55,85.53,85.54,3365
308,85.54,85.54,85.51,85.51,1500
309,85.53,85.53,85.52,85.53,500
310,85.51,85.54,85.51,85.54,300
311,85.54,85.55,85.51,85.5243,3625
312,85.54,85.54,85.51,85.54,1000
313,85.54,85.5599,85.52,85.53,4202
314,85.56,85.56,85.53,85.53,1123
315,85.53,85.5599,85.53,85.5599,1162
316,85.49,85.54,85.49,85.53,1200
317,85.5,85.51,85.47,85.49,6321
318,85.49,85.51,85.49,85.5,1000
319,85.51,85.51,85.47,85.49,1500
320,85.48,85.49,85.47,85.4804,2225
321,85.48,85.52,85.48,85.49,3446
322,85.51,85.51,85.4929,85.5,811
323,85.51,85.52,85.51,85.51,2970
324,85.55,85.55,85.52,85.53,1800
325,85.54,85.54,85.54,85.54,300
326,85.55,85.55,85.54,85.55,2015
327,85.51,85.53,85.51,85.53,1202
328,85.51,85.5299,85.51,85.5299,490
329,85.49,85.52,85.47,85.52,7668
330,85.479,85.51,85.44,85.49,6909
331,85.55,85.57,85.4588,85.4588,2430
332,85.53,85.56,85.52,85.56,1800
333,85.545,85.55,85.5106,85.52,1600
334,85.56,85.56,85.535,85.54,2722
335,85.52,85.54,85.51,85.54,1400
336,85.47,85.52,85.47,85.51,4200
337,85.45,85.46,85.43,85.46,2811
338,85.47,85.48,85.4401,85.46,2071
339,85.48,85.5,85.47,85.49,3274
340,85.44,85.48,85.43,85.47,3164
341,85.4,85.435,85.4,85.43,1750
342,85.36,85.3951,85.36,85.39,1175
343,85.34,85.37,85.34,85.37,1800
344,85.3,85.33,85.29,85.33,2543
345,85.24,85.29,85.24,85.29,1100
346,85.17,85.24,85.16,85.24,4150
347,85.18,85.19,85.16,85.16,3250
348,85.17,85.19,85.17,85.18,1400
349,85.23,85.23,85.16,85.18,5431
350,85.22,85.25,85.205,85.24,3559
351,85.21,85.22,85.21,85.22,800
352,85.19,85.2,85.19,85.19,400
353,85.19,85.21,85.19,85.2,4455
354,85.16,85.199,85.16,85.19,4916
355,85.19,85.21,85.14,85.16,4000
356,85.18,85.2,85.17,85.2,1797
357,85.16,85.19,85.16,85.19,2735
358,85.17,85.18,85.16,85.16,2000
359,85.18,85.19,85.17,85.17,2608
360,85.14,85.17,85.14,85.17,2200
361,85.19,85.19,85.12,85.13,6500
362,85.14,85.18,85.13,85.18,6131
363,85.12,85.14,85.12,85.14,4500
364,85.12,85.13,85.1,85.11,7600
365,85.13,85.14,85.115,85.115,7406
366,85.16,85.16,85.12,85.12,5100
367,85.25,85.25,85.16,85.16,5972
368,85.24,85.33,85.22,85.25,10572
369,85.21,85.25,85.21,85.24,3365
370,85.265,85.27,85.19,85.21,7108
371,85.21,85.27,85.21,85.26,4800
372,85.2,85.21,85.2,85.21,3000
373,85.22,85.23,85.21,85.21,6478
374,85.24,85.25,85.22,85.22,4275
375,85.16,85.23,85.15,85.23,10010
376,85.26,85.26,85.15,85.16,14450
377,85.235,85.26,85.23,85.26,3821
378,85.21,85.24,85.19,85.24,4692
379,85.24,85.27,85.22,85.22,6250
380,85.28,85.28,85.23,85.24,18096
381,85.27,85.29,85.24,85.265,11477
382,85.26,85.28,85.25,85.27,6695
383,85.2475,85.25,85.24,85.25,5252
384,85.3,85.305,85.24,85.24,12890
385,85.265,85.3,85.265,85.3,7653
386,85.24,85.27,85.24,85.26,12090
387,85.2,85.245,85.2,85.24,17718
388,85.17,85.21,85.17,85.19,14782
389,85.1301,85.1601,85.11,85.16,20787
390,85.1,85.16,85.09,85.14,30840
