PPG,PPG Industries,Materials,8,Specialty Chemicals,26579002628,1586855
a1503495060,103.92,104.02,103.83,104.02,13054
1,103.89,103.89,103.89,103.89,100
2,104.02,104.02,103.77,103.88,900
3,103.9,103.9,103.9,103.9,100
4,103.77,103.87,103.68,103.78,2072
5,104.13,104.13,103.785,103.785,2687
6,104.11,104.11,104.11,104.11,100
7,104.05,104.12,104,104.11,6330
8,103.88,104.13,103.87,104.09,8152
9,103.99,104.08,103.9,104.08,2000
10,103.95,103.95,103.92,103.93,1700
11,103.98,104.05,103.95,103.97,1800
12,103.8,103.97,103.73,103.97,6776
14,103.89,103.89,103.74,103.83,1500
15,103.87,103.91,103.87,103.91,200
16,103.8,103.9,103.8,103.89,6706
17,103.75,103.8,103.75,103.75,500
18,103.83,103.85,103.76,103.76,1582
19,103.92,103.92,103.83,103.83,600
20,103.84,103.91,103.84,103.91,1351
21,103.84,103.84,103.78,103.78,2591
22,103.87,103.9,103.87,103.9,1449
23,103.82,103.84,103.82,103.84,300
24,103.8,103.8,103.8,103.8,100
25,103.9,103.9,103.88,103.88,1050
26,103.9,103.9,103.8,103.87,1452
27,103.94,103.94,103.94,103.94,200
28,103.94,103.94,103.89,103.94,300
30,103.85,103.89,103.85,103.89,500
31,103.78,103.81,103.78,103.81,299
32,103.8,103.82,103.78,103.78,800
33,103.73,103.78,103.73,103.78,800
35,103.76,103.8,103.76,103.76,3603
36,103.68,103.76,103.68,103.76,1400
37,103.675,103.68,103.675,103.68,300
38,103.67,103.67,103.67,103.67,100
39,103.67,103.69,103.66,103.66,1200
40,103.75,103.75,103.7,103.7,1900
42,103.7204,103.75,103.7204,103.75,300
43,103.7,103.72,103.7,103.72,359
44,103.77,103.77,103.74,103.74,1837
45,103.7441,103.765,103.74,103.765,10395
47,103.86,103.86,103.7637,103.7637,1494
48,103.96,103.96,103.84,103.85,2741
49,104,104,103.99,103.99,583
50,103.99,104,103.97,104,767
51,103.95,103.95,103.95,103.95,100
52,103.9695,103.9695,103.91,103.91,600
53,103.94,103.94,103.94,103.94,100
54,103.94,103.94,103.92,103.94,1049
55,103.92,103.92,103.92,103.92,100
56,103.89,103.89,103.89,103.89,200
57,103.91,103.9178,103.89,103.9178,371
58,103.93,103.94,103.92,103.92,2086
59,103.91,103.94,103.91,103.93,1400
60,103.7904,103.87,103.7904,103.87,425
61,103.78,103.78,103.78,103.78,100
62,103.725,103.78,103.725,103.78,300
63,103.81,103.81,103.76,103.76,2381
64,103.82,103.82,103.81,103.81,900
65,103.84,103.84,103.83,103.83,400
66,103.82,103.85,103.82,103.85,2111
67,103.86,103.86,103.85,103.85,800
68,103.86,103.86,103.86,103.86,100
69,103.82,103.8541,103.82,103.8541,420
70,103.82,103.86,103.82,103.85,1236
71,103.8173,103.8173,103.8173,103.8173,100
72,103.79,103.8,103.79,103.8,200
73,103.8,103.8,103.8,103.8,100
74,103.76,103.76,103.76,103.76,300
75,103.85,103.85,103.79,103.79,2840
76,103.91,103.91,103.86,103.86,1366
77,103.87,103.93,103.87,103.9,500
79,103.85,103.88,103.8452,103.86,2487
81,103.85,103.85,103.85,103.85,600
82,103.89,103.89,103.88,103.88,900
83,103.88,103.88,103.86,103.87,590
84,103.84,103.87,103.84,103.87,1709
85,103.847,103.847,103.847,103.847,232
86,103.8284,103.83,103.81,103.83,1718
87,103.81,103.83,103.81,103.83,400
88,103.77,103.79,103.77,103.79,300
89,103.77,103.77,103.74,103.7667,900
90,103.81,103.82,103.76,103.76,1500
91,103.8,103.81,103.8,103.81,600
92,103.79,103.8,103.78,103.8,501
93,103.815,103.83,103.8,103.8,900
94,103.83,103.84,103.83,103.84,1092
95,103.82,103.84,103.82,103.8383,500
96,103.83,103.83,103.81,103.82,500
97,103.82,103.82,103.82,103.82,200
98,103.82,103.84,103.8,103.8,300
99,103.83,103.85,103.83,103.85,2305
101,103.77,103.82,103.77,103.82,1600
102,103.75,103.75,103.75,103.75,200
103,103.77,103.77,103.76,103.76,1987
104,103.65,103.74,103.65,103.74,1400
105,103.7,103.7,103.68,103.69,1103
106,103.8,103.8,103.71,103.71,3495
107,103.7908,103.8,103.79,103.8,983
108,103.82,103.82,103.79,103.8,700
109,103.81,103.865,103.8,103.82,7180
111,103.82,103.83,103.77,103.8098,4336
112,103.81,103.82,103.81,103.82,300
114,103.81,103.83,103.81,103.83,200
115,103.85,103.86,103.82,103.82,1889
116,103.82,103.85,103.82,103.85,985
118,103.86,103.86,103.82,103.82,2800
119,103.89,103.9,103.87,103.87,700
120,103.92,103.97,103.89,103.92,6528
121,103.93,103.95,103.93,103.95,329
122,103.96,103.96,103.9599,103.9599,208
123,103.9,103.96,103.9,103.96,1350
124,103.91,103.94,103.91,103.92,400
125,103.88,103.91,103.88,103.91,1900
126,103.87,103.8894,103.87,103.8894,700
127,103.9,103.9,103.865,103.865,1700
128,103.92,103.93,103.92,103.93,400
129,103.95,103.95,103.94,103.94,500
130,103.96,104,103.96,103.97,1278
131,103.94,103.95,103.94,103.95,500
132,103.95,103.95,103.95,103.95,200
134,103.93,103.944,103.93,103.944,340
135,103.95,103.96,103.94,103.96,600
136,103.95,103.95,103.93,103.94,1023
137,103.96,103.96,103.93,103.93,200
138,103.94,103.97,103.94,103.97,3577
139,103.99,103.99,103.94,103.94,3600
140,104.03,104.05,103.99,103.99,2300
142,104.04,104.04,104,104.02,1286
144,104.0578,104.06,104.04,104.04,1294
145,104.07,104.08,104.03,104.05,2030
146,104.08,104.08,104.08,104.08,200
147,104.06,104.06,104.06,104.06,100
148,104.09,104.09,104.09,104.09,300
149,104.07,104.09,104.07,104.08,300
150,104.08,104.08,104.07,104.07,414
151,104.03,104.06,104.03,104.06,1400
152,104.05,104.05,104.03,104.03,1700
154,104.03,104.04,104.03,104.04,43500
155,104.03,104.03,104.02,104.02,600
156,104.02,104.02,104,104,2785
157,104.06,104.06,104.02,104.02,2210
158,104.0601,104.09,104.0601,104.07,1076
159,104.08,104.08,104.07,104.07,300
160,104.04,104.07,104.025,104.07,1212
161,104.035,104.04,104.035,104.04,200
162,104.0412,104.0412,104.0412,104.0412,275
163,104.1,104.1,104.0261,104.0261,3650
165,104.065,104.065,104.065,104.065,134
166,104.0665,104.0797,104.065,104.07,1600
167,104.07,104.07,104.07,104.07,100
168,104.06,104.06,104.05,104.05,1200
169,104.06,104.06,104.05,104.05,6200
170,104.0895,104.13,104.05,104.07,10305
171,104.159,104.18,104.08,104.08,10693
172,104.2,104.2,104.17,104.17,1000
173,104.35,104.35,104.21,104.21,2511
174,104.31,104.34,104.23,104.34,12600
175,104.35,104.35,104.3,104.3,3989
176,104.3,104.35,104.28,104.35,1800
177,104.3,104.33,104.28,104.29,3150
178,104.35,104.42,104.3,104.3,12756
179,104.2851,104.2851,104.2851,104.2851,127
181,104.29,104.3,104.29,104.3,417
182,104.29,104.29,104.29,104.29,100
183,104.3,104.3,104.3,104.3,500
184,104.31,104.31,104.29,104.308,3690
185,104.36,104.385,104.3,104.32,9571
186,104.37,104.38,104.32,104.37,3700
187,104.39,104.391,104.34,104.36,3100
188,104.37,104.37,104.31,104.37,16200
189,104.2627,104.39,104.23,104.37,8827
190,104.2107,104.23,104.205,104.23,400
193,104.15,104.15,104.15,104.15,100
195,104.15,104.15,104.15,104.15,200
196,104.14,104.15,104.14,104.15,340
197,104.11,104.11,104.11,104.11,100
198,104.1,104.1,104.1,104.1,200
199,104.08,104.08,104.06,104.06,300
200,104.13,104.13,104.07,104.09,2601
201,104.12,104.12,104.12,104.12,325
202,104.1,104.1,104.1,104.1,100
203,104.09,104.12,104.09,104.1,4799
206,104.12,104.13,104.11,104.11,1666
207,104.14,104.14,104.14,104.14,300
208,104.13,104.13,104.13,104.13,100
209,104.1,104.13,104.1,104.13,400
210,104.1,104.1,104.095,104.1,700
211,104.1,104.1,104.1,104.1,100
212,104.11,104.11,104.0972,104.0972,957
213,104.12,104.12,104.12,104.12,600
214,104.12,104.13,104.12,104.13,2000
215,104.11,104.12,104.11,104.12,400
216,104.15,104.15,104.13,104.14,1600
217,104.17,104.17,104.16,104.16,1300
219,104.15,104.16,104.15,104.16,400
220,104.19,104.19,104.13,104.14,2718
221,104.18,104.2,104.18,104.19,1000
222,104.19,104.19,104.19,104.19,400
224,104.18,104.18,104.18,104.18,200
225,104.12,104.13,104.12,104.13,600
226,104.09,104.11,104.09,104.095,1200
228,103.99,104.02,103.99,104.02,200
229,104.04,104.04,104.02,104.02,900
230,104.02,104.02,104.02,104.02,100
231,104,104,104,104,400
232,103.99,103.99,103.99,103.99,100
233,103.97,103.99,103.96,103.99,300
234,103.96,103.96,103.96,103.96,100
235,103.97,103.97,103.97,103.97,100
236,103.99,103.99,103.98,103.98,800
237,104,104,103.97,103.97,400
238,104,104,103.97,103.97,905
239,104.04,104.04,104.01,104.01,1052
241,104.04,104.04,104.03,104.03,300
243,104.02,104.03,104.02,104.03,600
244,103.9881,103.9881,103.9881,103.9881,200
245,103.94,103.97,103.94,103.97,700
246,103.96,103.96,103.94,103.95,600
247,103.96,103.96,103.96,103.96,100
248,103.94,103.97,103.94,103.96,2319
250,103.91,103.91,103.91,103.91,100
252,103.9,103.93,103.9,103.91,500
254,103.89,103.9299,103.89,103.9299,281
255,103.87,103.89,103.87,103.89,800
256,103.87,103.875,103.86,103.875,400
257,103.86,103.88,103.86,103.87,700
258,103.95,103.95,103.86,103.86,5066
259,103.94,103.94,103.94,103.94,200
260,103.89,103.89,103.89,103.89,100
262,103.885,103.885,103.885,103.885,588
263,103.9,103.9,103.87,103.87,600
264,103.86,103.875,103.86,103.87,2269
265,103.85,103.86,103.84,103.86,1189
266,103.8,103.85,103.8,103.85,3300
267,103.76,103.76,103.755,103.755,500
268,103.74,103.77,103.735,103.7575,2417
269,103.74,103.74,103.73,103.73,475
270,103.74,103.75,103.735,103.74,1800
271,103.71,103.73,103.71,103.73,1956
272,103.73,103.74,103.73,103.74,300
273,103.71,103.74,103.6901,103.7322,1491
274,103.7,103.7,103.675,103.68,3981
275,103.67,103.69,103.67,103.69,1066
276,103.66,103.66,103.66,103.66,127
277,103.66,103.66,103.65,103.66,1400
278,103.65,103.65,103.64,103.65,2028
279,103.64,103.64,103.635,103.64,2824
280,103.68,103.68,103.65,103.65,2063
281,103.71,103.71,103.68,103.68,600
282,103.73,103.8,103.71,103.71,5273
283,103.7671,103.7671,103.74,103.75,620
284,103.7438,103.7438,103.7438,103.7438,275
285,103.745,103.77,103.72,103.75,5000
286,103.72,103.75,103.72,103.745,1100
287,103.71,103.71,103.71,103.71,100
288,103.63,103.7,103.63,103.7,900
289,103.61,103.64,103.61,103.63,652
290,103.63,103.64,103.625,103.64,797
291,103.62,103.64,103.62,103.63,1244
292,103.59,103.65,103.59,103.65,1000
293,103.65,103.65,103.63,103.63,900
294,103.65,103.65,103.65,103.65,100
295,103.63,103.65,103.6255,103.6255,2228
296,103.63,103.64,103.63,103.64,300
297,103.61,103.62,103.61,103.62,301
298,103.61,103.63,103.61,103.63,675
299,103.66,103.66,103.63,103.63,2600
300,103.69,103.69,103.65,103.65,800
301,103.72,103.72,103.7,103.7,500
302,103.72,103.72,103.72,103.72,200
303,103.73,103.73,103.73,103.73,100
304,103.72,103.72,103.715,103.72,700
305,103.74,103.74,103.74,103.74,100
306,103.73,103.75,103.73,103.75,819
307,103.74,103.74,103.74,103.74,200
309,103.755,103.755,103.75,103.75,400
310,103.77,103.78,103.76,103.76,1665
311,103.78,103.78,103.78,103.78,1033
312,103.79,103.79,103.78,103.78,585
313,103.81,103.82,103.8,103.8,559
314,103.8098,103.8098,103.8098,103.8098,148
315,103.8,103.81,103.8,103.81,650
316,103.78,103.8,103.77,103.8,1794
317,103.75,103.77,103.75,103.77,400
318,103.7388,103.74,103.7388,103.74,781
319,103.7365,103.75,103.7365,103.74,976
320,103.76,103.77,103.74,103.74,2000
321,103.77,103.77,103.762,103.765,561
322,103.78,103.78,103.765,103.77,1200
323,103.77,103.78,103.77,103.78,700
325,103.7601,103.77,103.7601,103.77,398
326,103.755,103.77,103.755,103.76,400
327,103.75,103.75,103.75,103.75,100
328,103.76,103.78,103.76,103.76,1600
329,103.76,103.76,103.76,103.76,100
330,103.78,103.78,103.76,103.76,7188
331,103.82,103.83,103.79,103.79,2500
332,103.8,103.8,103.8,103.8,100
334,103.82,103.82,103.82,103.82,600
336,103.8,103.82,103.79,103.82,1295
337,103.81,103.81,103.81,103.81,300
338,103.83,103.83,103.815,103.82,1300
340,103.82,103.83,103.82,103.83,2072
341,103.81,103.81,103.8,103.81,300
342,103.79,103.8,103.79,103.8,300
343,103.8,103.8,103.79,103.79,1024
344,103.79,103.79,103.79,103.79,200
345,103.78,103.79,103.78,103.79,700
346,103.8,103.8,103.78,103.79,1785
347,103.83,103.83,103.79,103.79,4007
348,103.87,103.87,103.83,103.83,1300
349,103.9,103.91,103.89,103.91,1300
350,103.93,103.94,103.91,103.91,2600
351,103.92,103.93,103.92,103.93,1500
352,103.89,103.92,103.89,103.92,2752
353,103.9,103.9,103.89,103.89,766
354,103.95,103.96,103.89,103.89,5360
355,104,104,103.98,103.98,2715
356,104.01,104.02,104,104.01,1840
357,104.05,104.05,104.01,104.03,1400
358,104.03,104.05,104.03,104.05,2700
359,103.99,104.02,103.99,104.02,1430
360,103.995,104,103.99,104,500
361,103.915,103.99,103.91,103.99,3255
362,103.91,103.92,103.91,103.91,1800
363,103.89,103.9,103.89,103.9,808
364,103.87,103.895,103.87,103.895,600
365,103.88,103.89,103.87,103.87,3473
366,103.87,103.885,103.87,103.88,1783
367,103.925,103.94,103.9,103.9,3998
368,103.9207,103.9399,103.91,103.92,1407
369,103.91,103.91,103.91,103.91,1451
370,103.86,103.9,103.86,103.9,2947
371,103.85,103.8601,103.84,103.86,1410
372,103.84,103.86,103.84,103.85,2654
373,103.85,103.86,103.8,103.84,4142
374,103.83,103.86,103.82,103.86,5011
375,103.84,103.84,103.8,103.83,2270
376,103.79,103.81,103.78,103.81,2721
377,103.73,103.79,103.73,103.79,2931
378,103.73,103.76,103.71,103.74,2732
379,103.72,103.73,103.7101,103.7101,2375
380,103.76,103.78,103.725,103.725,5745
381,103.76,103.77,103.72,103.75,3727
382,103.72,103.76,103.72,103.755,4627
383,103.74,103.75,103.7,103.7125,5825
384,103.73,103.74,103.7,103.74,5401
385,103.73,103.76,103.7,103.72,6020
386,103.72,103.75,103.7,103.745,5719
387,103.68,103.71,103.67,103.71,8941
388,103.67,103.7,103.66,103.68,6350
389,103.63,103.71,103.59,103.68,24865
