EOG,EOG Resources,Energy,3,Oil & Gas Exploration & Production,54323707950,3435036
a1500471000,91.56,91.56,91.56,91.56,16573
2,91.96,92,91.74,91.74,1600
3,91.99,92.12,91.941,92,6221
4,92.16,92.18,92.05,92.05,2707
5,92.13,92.17,92.02,92.08,4860
6,92.1199,92.12,92,92.081,5723
7,92.24,92.24,92.11,92.11,2998
8,92.2,92.22,92.12,92.17,4197
9,92.24,92.25,92.1,92.2,7516
10,92.23,92.28,92.18,92.25,2100
11,92.28,92.29,92.13,92.18,5519
12,92.4,92.41,92.26,92.26,8627
13,92.53,92.54,92.4,92.4,15060
14,92.58,92.62,92.5,92.55,7314
15,92.69,92.72,92.5442,92.5442,8849
16,92.6713,92.72,92.62,92.64,14018
17,92.65,92.74,92.62,92.73,12843
18,92.68,92.69,92.62,92.67,9272
19,92.61,92.68,92.58,92.68,12793
20,92.6,92.64,92.584,92.62,4022
21,92.5299,92.59,92.5299,92.59,3753
22,92.41,92.51,92.4,92.51,29523
23,92.43,92.45,92.42,92.42,2301
24,92.52,92.52,92.4,92.4,1901
25,92.51,92.57,92.51,92.52,4642
26,92.58,92.62,92.5,92.52,6252
27,92.64,92.64,92.56,92.62,4758
28,92.69,92.69,92.65,92.65,1300
29,92.73,92.73,92.63,92.68,5802
30,92.65,92.74,92.65,92.73,8654
31,92.7,92.72,92.61,92.65,25878
32,92.62,92.71,92.59,92.67,44760
33,92.61,92.71,92.59,92.6,27268
34,92.57,92.58,92.54,92.58,4866
35,92.5692,92.59,92.52,92.56,4369
36,92.72,92.72,92.57,92.57,3432
37,92.69,92.72,92.64,92.71,11272
38,92.65,92.69,92.59,92.67,17393
39,92.7,92.7,92.59,92.61,8247
40,92.69,92.71,92.675,92.69,6390
41,92.72,92.74,92.68,92.69,8643
42,92.72,92.73,92.68,92.73,7900
43,92.78,92.81,92.72,92.73,5975
44,92.75,92.78,92.75,92.77,9120
45,92.76,92.76,92.72,92.73,1900
46,92.7,92.82,92.695,92.75,3952
47,92.7,92.7,92.69,92.7,11849
48,92.71,92.73,92.7,92.71,3320
49,92.7,92.75,92.67,92.73,11558
50,92.75,92.75,92.7,92.7,4210
51,92.77,92.83,92.75,92.75,1800
52,92.8001,92.82,92.75,92.77,5367
53,92.81,92.83,92.78,92.8,4788
54,92.87,92.91,92.83,92.83,3287
55,92.9,92.92,92.85,92.85,4879
56,92.96,93.03,92.91,92.91,9097
57,92.95,92.96,92.9,92.96,5511
58,92.9299,92.96,92.9,92.95,3101
59,92.93,92.93,92.88,92.91,5219
60,93.33,93.37,92.9,92.93,21540
61,93.28,93.41,93.13,93.33,28746
62,93.2,93.29,93.11,93.29,13327
63,93.335,93.335,93.19,93.21,9080
64,93.285,93.37,93.24,93.2989,8105
65,93.22,93.3,93.22,93.27,11508
66,93.34,93.34,93.25,93.26,4500
67,93.3,93.36,93.24,93.29,8524
68,93.2283,93.27,93.19,93.23,13464
69,93,93.19,92.975,93.19,8142
70,92.99,93,92.86,93,32444
71,93.03,93.06,92.87,93.01,13609
72,93.06,93.112,92.98,92.99,3800
73,93.065,93.11,93.0306,93.08,4158
74,93.16,93.17,93.045,93.05,5384
75,93.14,93.15,93.09,93.15,3726
76,93.24,93.24,93.14,93.16,3402
77,93.28,93.3,93.24,93.29,2915
78,93.23,93.29,93.19,93.29,3955
79,93.2265,93.23,93.19,93.22,3493
80,93.13,93.248,93.13,93.205,10723
81,93.21,93.21,93.105,93.14,3100
82,93.19,93.24,93.17,93.185,2200
83,93.23,93.23,93.15,93.19,3631
84,93.14,93.24,93.14,93.215,2173
85,93.11,93.17,93.05,93.14,4400
86,93.09,93.12,93.03,93.1,4863
87,93.17,93.17,93.07,93.09,2600
88,93.14,93.21,93.14,93.16,3700
89,93.18,93.22,93.17,93.19,1710
90,93.22,93.22,93.15,93.189,3100
91,93.18,93.215,93.16,93.215,3852
92,93.22,93.26,93.17,93.18,4348
93,93.22,93.22,93.17,93.2,3406
94,93.3,93.32,93.22,93.22,5886
95,93.31,93.33,93.27,93.32,4236
96,93.305,93.35,93.3,93.34,3342
97,93.28,93.32,93.28,93.32,1000
98,93.35,93.35,93.28,93.28,2846
99,93.41,93.41,93.35,93.37,14305
100,93.45,93.51,93.41,93.41,46899
101,93.49,93.55,93.44,93.44,12984
102,93.56,93.57,93.5,93.5,7653
103,93.62,93.62,93.56,93.57,4017
104,93.6,93.63,93.59,93.63,17744
105,93.57,93.595,93.535,93.59,5824
106,93.54,93.59,93.54,93.58,3702
107,93.56,93.58,93.52,93.53,2488
108,93.5675,93.6193,93.55,93.55,8732
109,93.61,93.61,93.57,93.59,3740
110,93.57,93.6,93.57,93.6,9436
111,93.54,93.57,93.54,93.57,10105
112,93.6199,93.6199,93.55,93.57,3836
113,93.55,93.62,93.55,93.61,2731
114,93.53,93.56,93.53,93.56,1673
115,93.57,93.57,93.51,93.53,1801
116,93.59,93.59,93.56,93.59,2110
117,93.55,93.58,93.54,93.58,2679
118,93.5324,93.56,93.5,93.53,9154
119,93.54,93.54,93.49,93.53,4036
120,93.52,93.54,93.51,93.54,2200
121,93.5252,93.54,93.51,93.53,1675
122,93.56,93.56,93.5,93.51,8137
123,93.53,93.56,93.51,93.55,13636
124,93.56,93.59,93.5114,93.5114,3550
125,93.58,93.58,93.55,93.55,4162
126,93.57,93.58,93.54,93.57,11408
127,93.6,93.6,93.53,93.57,12603
128,93.665,93.67,93.56,93.59,24429
129,93.65,93.67,93.64,93.67,2500
130,93.7,93.73,93.63,93.64,17086
131,93.74,93.75,93.71,93.71,2819
132,93.74,93.76,93.72,93.74,1600
133,93.75,93.75,93.73,93.73,4504
134,93.84,93.84,93.74,93.75,4009
135,93.8,93.9,93.8,93.88,1900
136,93.8,93.83,93.8,93.805,4897
137,93.82,93.82,93.8,93.81,3375
138,93.83,93.84,93.81,93.81,4827
139,93.846,93.88,93.83,93.835,14301
140,93.945,93.97,93.85,93.85,17481
141,94,94.03,93.95,93.95,29656
142,94.03,94.03,94,94,17259
143,94,94.06,93.99,94.03,21729
144,94.01,94.02,93.99,94,7803
145,93.97,94.01,93.97,94.01,2350
146,93.95,93.98,93.95,93.98,4287
147,93.9,93.95,93.88,93.9447,1936
148,93.895,93.9,93.88,93.9,7043
149,93.97,94.02,93.89,93.89,9072
150,93.97,93.97,93.94,93.97,1600
151,93.99,94.04,93.98,93.98,5060
152,94.05,94.07,93.98,93.99,4400
153,94.01,94.05,94.01,94.05,3509
154,94.03,94.03,94.01,94.012,1000
155,94.02,94.02,94.01,94.01,500
156,93.94,94.03,93.94,94.02,5000
157,93.93,93.96,93.93,93.96,900
158,93.9,93.94,93.89,93.92,10279
159,93.9,93.91,93.89,93.9,4853
160,93.85,93.91,93.85,93.9,7635
161,93.845,93.88,93.845,93.85,2300
162,93.8688,93.87,93.84,93.85,3691
163,93.89,93.89,93.85,93.88,4273
164,94,94,93.88,93.88,4010
165,94.11,94.13,93.995,94,12450
166,94.05,94.105,94.02,94.105,11112
167,94.06,94.08,94.05,94.06,3100
168,94.03,94.07,94.03,94.07,3827
169,94.14,94.16,94.04,94.04,4998
170,94.18,94.19,94.13,94.15,4272
171,94.14,94.23,94.13,94.18,7052
172,94.18,94.18,94.14,94.15,1300
173,94.111,94.15,94.03,94.15,8249
174,94.13,94.15,94.12,94.15,1400
175,94.1201,94.13,94.12,94.13,1600
176,94.17,94.19,94.13,94.14,3009
177,94.21,94.21,94.13,94.17,2760
178,94.14,94.1866,94.13,94.1866,6362
179,94.1301,94.17,94.13,94.13,1412
180,94.08,94.14,94.08,94.14,3600
181,94.07,94.12,94.0501,94.07,7528
182,94.05,94.07,94.05,94.07,3640
183,94.08,94.08,94.04,94.04,3614
184,94.1,94.14,94.07,94.07,6981
185,94.08,94.08,94.03,94.08,3148
186,94.12,94.1299,94.08,94.08,4356
187,94.16,94.16,94.111,94.1175,2634
188,94.15,94.17,94.14,94.16,4818
189,94.21,94.21,94.15,94.17,1850
190,94.28,94.28,94.19,94.19,11131
191,94.28,94.28,94.26,94.27,2749
192,94.29,94.31,94.29,94.29,1200
193,94.27,94.28,94.26,94.28,5400
194,94.32,94.32,94.27,94.27,7095
195,94.3791,94.39,94.3,94.3,12441
196,94.385,94.385,94.351,94.375,3626
197,94.39,94.39,94.3699,94.38,2024
198,94.426,94.46,94.38,94.38,7999
199,94.42,94.46,94.42,94.44,2970
200,94.391,94.445,94.391,94.43,3348
201,94.4,94.42,94.38,94.41,5108
202,94.405,94.41,94.37,94.4,3207
203,94.45,94.45,94.38,94.41,4900
204,94.4,94.48,94.4,94.45,6072
205,94.35,94.385,94.3001,94.37,3957
206,94.31,94.4,94.31,94.36,5269
207,94.35,94.36,94.32,94.32,1641
208,94.3,94.36,94.3,94.341,3754
209,94.23,94.31,94.23,94.305,9151
210,94.24,94.255,94.24,94.255,1100
211,94.213,94.26,94.2,94.24,3504
212,94.2,94.24,94.19,94.22,3308
213,94.17,94.2,94.14,94.18,7260
214,94.17,94.17,94.15,94.17,6163
215,94.225,94.23,94.19,94.19,2558
216,94.23,94.25,94.2,94.23,4367
217,94.24,94.27,94.23,94.25,4650
218,94.21,94.23,94.15,94.23,3969
219,94.2,94.21,94.17,94.2,10173
220,94.2,94.22,94.19,94.2,5339
221,94.21,94.22,94.18,94.2,8115
222,94.29,94.29,94.17,94.18,4800
223,94.23,94.31,94.23,94.29,4636
224,94.26,94.27,94.23,94.23,2300
225,94.22,94.26,94.21,94.26,5639
226,94.21,94.23,94.19,94.21,5991
227,94.22,94.22,94.17,94.2,5019
228,94.19,94.24,94.19,94.24,2420
229,94.26,94.27,94.19,94.196,6910
230,94.19,94.27,94.19,94.26,2600
231,94.2,94.21,94.19,94.2,1890
232,94.2,94.22,94.2,94.2,2165
233,94.24,94.24,94.2,94.2,1800
234,94.2043,94.22,94.2,94.21,2701
235,94.2,94.22,94.19,94.21,8462
236,94.2,94.22,94.19,94.19,4603
237,94.25,94.28,94.21,94.22,4660
238,94.25,94.251,94.18,94.24,6751
239,94.25,94.25,94.22,94.25,5886
240,94.29,94.29,94.24,94.25,4400
241,94.28,94.31,94.28,94.29,5300
242,94.27,94.285,94.26,94.28,1800
243,94.35,94.36,94.27,94.28,3000
244,94.3036,94.33,94.27,94.33,2620
245,94.29,94.31,94.29,94.29,2000
246,94.21,94.32,94.21,94.31,7658
247,94.22,94.23,94.2,94.21,6276
248,94.21,94.22,94.2,94.22,5547
249,94.21,94.24,94.21,94.21,3500
250,94.265,94.27,94.2,94.21,3713
251,94.21,94.24,94.21,94.24,2061
252,94.24,94.25,94.21,94.21,2701
253,94.22,94.28,94.2,94.28,5592
254,94.23,94.31,94.23,94.24,3600
255,94.23,94.23,94.22,94.22,2300
256,94.24,94.25,94.221,94.221,1600
257,94.2462,94.25,94.24,94.24,3104
258,94.24,94.26,94.22,94.245,12341
259,94.24,94.25,94.24,94.24,3101
260,94.25,94.27,94.23,94.24,3613
261,94.24,94.27,94.24,94.26,2300
262,94.27,94.3,94.24,94.27,2911
263,94.24,94.29,94.24,94.29,2059
264,94.24,94.28,94.24,94.24,29965
265,94.27,94.27,94.23,94.24,5300
266,94.29,94.3,94.27,94.27,2226
267,94.34,94.35,94.29,94.29,2550
268,94.34,94.34,94.3,94.33,2800
269,94.37,94.37,94.33,94.34,13259
270,94.36,94.36,94.33,94.34,4224
271,94.34,94.37,94.34,94.36,2534
272,94.38,94.38,94.35,94.37,2050
273,94.41,94.45,94.37,94.38,6101
274,94.47,94.47,94.4,94.41,7342
275,94.5,94.51,94.48,94.48,15091
276,94.4899,94.51,94.4514,94.5,12876
277,94.51,94.52,94.48,94.48,5422
278,94.48,94.49,94.48,94.49,5800
279,94.4,94.49,94.4,94.49,9488
280,94.36,94.41,94.36,94.4,10555
281,94.25,94.34,94.25,94.34,5050
282,94.2696,94.28,94.25,94.25,3608
283,94.29,94.29,94.25,94.27,3962
284,94.24,94.27,94.2315,94.26,8900
285,94.28,94.28,94.2,94.24,7005
286,94.21,94.28,94.21,94.25,4299
287,94.24,94.25,94.21,94.21,1800
288,94.23,94.24,94.21,94.24,2301
289,94.2372,94.2372,94.2,94.21,6047
290,94.2,94.23,94.2,94.23,8611
291,94.09,94.21,94.09,94.2,12674
292,94.14,94.16,94.06,94.08,11046
293,94.06,94.14,94.05,94.14,5013
294,94.07,94.08,94.04,94.065,2209
295,94.0657,94.0833,94.0657,94.07,1708
296,94.05,94.09,94.04,94.08,4048
297,94.15,94.16,94.07,94.07,3700
298,94.16,94.19,94.14,94.14,16393
299,94.14,94.2,94.1248,94.14,13097
300,94.11,94.16,94.1,94.14,54513
301,94.15,94.18,94.11,94.11,4500
302,94.1899,94.19,94.14,94.18,3970
303,94.21,94.22,94.1705,94.1705,5314
304,94.32,94.32,94.2,94.21,18273
305,94.24,94.33,94.23,94.33,6201
306,94.29,94.29,94.21,94.21,4267
307,94.4,94.4099,94.3,94.3,4827
308,94.5,94.505,94.4,94.41,17750
309,94.51,94.51,94.4,94.51,13314
310,94.435,94.55,94.43,94.52,6850
311,94.415,94.49,94.4,94.42,2671
312,94.46,94.46,94.4,94.4,2642
313,94.42,94.44,94.39,94.44,2747
314,94.33,94.41,94.33,94.41,15872
315,94.29,94.32,94.28,94.32,7034
316,94.33,94.36,94.28,94.29,4200
317,94.35,94.37,94.3201,94.33,11028
318,94.33,94.361,94.33,94.36,4634
319,94.378,94.378,94.32,94.32,3281
320,94.37,94.39,94.36,94.38,9875
321,94.35,94.38,94.33,94.38,30643
322,94.42,94.42,94.32,94.36,12257
323,94.405,94.43,94.4,94.43,4007
324,94.45,94.465,94.41,94.41,6601
325,94.49,94.49,94.44,94.45,5831
326,94.44,94.49,94.44,94.49,6700
327,94.48,94.49,94.4536,94.4536,5045
328,94.505,94.51,94.49,94.5,4890
329,94.49,94.51,94.49,94.5,8105
330,94.49,94.505,94.48,94.49,6401
331,94.46,94.49,94.46,94.49,8559
332,94.4199,94.45,94.39,94.45,4158
333,94.4,94.445,94.4,94.42,4538
334,94.39,94.41,94.34,94.41,7701
335,94.42,94.42,94.36,94.38,11406
336,94.38,94.42,94.35,94.42,4210
337,94.35,94.38,94.35,94.38,1878
338,94.37,94.37,94.36,94.36,4201
339,94.39,94.395,94.36,94.37,9497
340,94.41,94.41,94.38,94.38,5122
341,94.399,94.42,94.37,94.42,6524
342,94.38,94.39,94.37,94.39,4528
343,94.371,94.38,94.35,94.38,6700
344,94.38,94.38,94.36,94.37,7532
345,94.41,94.44,94.39,94.39,8023
346,94.42,94.44,94.4,94.405,17801
347,94.45,94.5,94.4175,94.42,13732
348,94.42,94.46,94.42,94.45,12998
349,94.445,94.46,94.42,94.43,8038
350,94.45,94.46,94.4,94.45,15063
351,94.44,94.47,94.42,94.44,40456
352,94.47,94.47,94.44,94.45,28346
353,94.39,94.46,94.38,94.45,11345
354,94.37,94.39,94.3317,94.39,9802
355,94.3726,94.39,94.34,94.35,12362
356,94.3578,94.3799,94.35,94.36,6410
357,94.38,94.39,94.34,94.35,9628
358,94.35,94.37,94.34,94.37,5114
359,94.41,94.46,94.35,94.36,14152
360,94.37,94.411,94.345,94.41,6849
361,94.36,94.385,94.35,94.35,7186
362,94.4,94.43,94.36,94.37,13435
363,94.41,94.41,94.4,94.4,5805
364,94.4475,94.47,94.41,94.41,15598
365,94.45,94.46,94.415,94.45,16540
366,94.43,94.47,94.42,94.45,18817
367,94.34,94.42,94.34,94.42,5240
368,94.315,94.34,94.31,94.32,9831
369,94.31,94.32,94.3,94.31,10386
370,94.32,94.32,94.3,94.31,9675
371,94.335,94.34,94.31,94.315,12064
372,94.34,94.39,94.335,94.335,17467
373,94.34,94.36,94.32,94.35,19149
374,94.3118,94.34,94.3,94.33,19988
375,94.27,94.32,94.25,94.31,12150
376,94.31,94.34,94.28,94.28,18423
377,94.35,94.36,94.31,94.32,9466
378,94.345,94.3818,94.34,94.36,23293
379,94.34,94.35,94.3,94.35,53629
380,94.38,94.38,94.3,94.33,25744
381,94.32,94.39,94.32,94.37,23224
382,94.3,94.32,94.29,94.31,25278
383,94.305,94.32,94.29,94.3,19557
384,94.275,94.32,94.26,94.3,20143
385,94.25,94.28,94.24,94.28,23373
386,94.26,94.26,94.25,94.25,13903
387,94.29,94.29,94.25,94.255,29555
388,94.285,94.295,94.28,94.29,36149
389,94.25,94.29,94.235,94.285,67530
390,94.3,94.32,94.24,94.25,76700
