PPG,PPG Industries,Materials,8,Specialty Chemicals,29101391115,1126698
a1500471060,112.69,113.13,112.69,113.13,9027
1,112.9951,113.05,112.78,112.78,882
3,112.86,112.86,112.86,112.86,100
4,112.94,112.96,112.9,112.95,1500
5,113.1,113.1,113,113,800
6,113.17,113.17,113.1,113.12,1524
7,113.06,113.13,113.03,113.09,11125
8,113.09,113.1,113.01,113.045,3795
9,113.111,113.15,113.09,113.09,3100
10,113.13,113.13,113.11,113.13,2147
11,113.23,113.27,113.1,113.11,4750
12,113.28,113.31,113.23,113.23,3500
13,113.23,113.3,113.23,113.29,7363
14,113.34,113.35,113.23,113.24,7237
15,113.32,113.38,113.32,113.37,1820
16,113.26,113.29,113.26,113.2794,1186
17,113.26,113.28,113.25,113.25,800
18,113.22,113.28,113.2,113.28,2600
19,113.21,113.21,113.17,113.2,2775
20,113.16,113.21,113.15,113.21,1810
21,113.21,113.22,113.151,113.19,2550
22,113.2,113.22,113.17,113.2,3105
23,113.19,113.23,113.17,113.17,3000
24,113.12,113.2,113.11,113.19,3700
25,113.1,113.14,113.1,113.12,1000
26,112.98,113.098,112.98,113.098,2910
27,112.97,113.01,112.96,113.01,1000
28,112.94,112.98,112.92,112.951,2072
29,112.92,113,112.92,112.98,6453
30,113.05,113.05,112.92,112.92,3102
31,113.07,113.09,113.06,113.06,1700
32,113.0452,113.08,113.0452,113.08,3103
33,113.04,113.04,113.02,113.03,1301
34,113.08,113.14,113.05,113.05,4480
35,113.08,113.08,113.07,113.08,400
36,113.09,113.09,113.08,113.09,2800
37,113.1,113.12,113.09,113.1,1000
38,113.09,113.12,113.09,113.105,400
39,113.03,113.12,113.03,113.11,4983
40,112.95,113,112.95,113,2900
41,112.94,112.98,112.93,112.98,1600
42,112.93,112.94,112.93,112.94,500
43,112.96,112.99,112.93,112.9314,1213
44,113.07,113.07,113,113.05,1200
45,113.16,113.16,113.08,113.08,700
46,113.15,113.21,113.15,113.18,3085
47,113.14,113.15,113.13,113.15,600
48,113.14,113.17,113.14,113.17,759
49,113.15,113.17,113.15,113.15,800
50,113.18,113.18,113.16,113.16,500
51,113.13,113.17,113.13,113.17,2400
52,113.16,113.18,113.14,113.15,1900
53,113.205,113.205,113.17,113.17,2700
54,113.18,113.2,113.18,113.2,500
55,113.23,113.24,113.19,113.19,800
56,113.185,113.195,113.18,113.19,500
58,113.11,113.14,113.11,113.14,1400
59,113.185,113.185,113.119,113.119,1352
60,113.17,113.2,113.17,113.19,400
61,113.17,113.17,113.165,113.165,200
62,113.13,113.15,113.13,113.15,300
63,113.13,113.145,113.13,113.13,300
64,113.14,113.14,113.13,113.14,3399
65,113.08,113.155,113.08,113.15,1800
66,113.04,113.07,113.04,113.07,500
67,113.09,113.1,113.02,113.04,3203
68,113.13,113.13,113.1,113.11,2973
69,113.1,113.12,113.1,113.12,1500
70,113.09,113.12,113.08,113.11,1910
71,113.1,113.11,113.1,113.1,900
72,113.11,113.13,113.1,113.1,3300
73,113.1,113.14,113.1,113.14,600
74,113.11,113.11,113.11,113.11,500
75,113.1,113.12,113.1,113.11,3100
77,113.07,113.08,113.06,113.08,1100
78,113.0598,113.0598,113.0598,113.0598,123
79,113.12,113.12,113.07,113.07,2900
80,113.04,113.17,113.04,113.13,11093
81,112.98,113.03,112.96,113.03,950
83,112.98,113,112.98,112.98,4071
84,113.13,113.13,112.99,112.99,2500
85,113.12,113.12,113.12,113.12,500
86,113.15,113.15,113.15,113.15,400
87,113.13,113.17,113.13,113.15,1068
88,113.1399,113.1399,113.13,113.13,672
89,113.12,113.13,113.12,113.13,600
90,113.15,113.15,113.12,113.12,700
91,113.12,113.12,113.12,113.12,100
92,113.13,113.13,113.12,113.12,1600
93,113.14,113.14,113.12,113.12,1407
94,113.13,113.15,113.13,113.15,500
95,113.14,113.15,113.14,113.15,200
96,113.15,113.15,113.14,113.145,1610
97,113.14,113.14,113.14,113.14,200
98,113.07,113.14,113.055,113.14,5141
99,113.07,113.11,113.04,113.07,2400
100,113.01,113.03,113.01,113.03,1200
101,112.99,113.047,112.99,113.047,665
102,113.06,113.07,112.99,112.99,3938
103,113.03,113.04,113.03,113.04,573
104,113.06,113.08,113.03,113.03,2100
105,113.06,113.08,113.06,113.07,400
106,113.12,113.12,113.08,113.08,1500
107,113.15,113.16,113.11,113.12,1208
108,113.14,113.14,113.12,113.14,2100
109,113.1499,113.15,113.1499,113.15,613
110,113.13,113.15,113.13,113.15,2215
111,113.12,113.12,113.12,113.12,100
112,113.12,113.12,113.12,113.12,1100
113,113.15,113.16,113.12,113.12,1568
114,113.16,113.17,113.15,113.15,3040
115,113.15,113.1629,113.15,113.1629,350
116,113.14,113.15,113.14,113.15,1781
117,113.12,113.16,113.12,113.15,4054
118,113.1,113.11,113.1,113.11,200
119,113.05,113.1,113.05,113.1,450
121,113.0401,113.06,113.04,113.04,332
122,113.08,113.09,113.06,113.06,2400
123,113.09,113.11,113.09,113.09,800
124,113.12,113.12,113.105,113.105,400
125,113.12,113.13,113.105,113.12,2520
126,113.12,113.12,113.11,113.11,200
128,113.12,113.12,113.12,113.12,500
129,113.1461,113.1461,113.1021,113.1021,1456
130,113.15,113.15,113.14,113.15,3250
131,113.16,113.16,113.15,113.15,300
132,113.11,113.17,113.1,113.16,2800
133,113.06,113.07,113.06,113.07,300
134,113.06,113.09,113.06,113.0799,1408
135,113.08,113.08,113.05,113.05,1100
136,113.1006,113.11,113.08,113.08,1200
137,113.0886,113.09,113.0886,113.09,1062
138,113.11,113.11,113.09,113.09,200
139,113.09,113.09,113.09,113.09,200
140,113.12,113.12,113.1,113.1,700
141,113.05,113.1,113.05,113.1,1300
142,113.06,113.08,113.05,113.05,1200
143,113.0278,113.05,113.0278,113.03,400
144,113.05,113.05,113.01,113.01,1200
145,113.08,113.08,113.05,113.05,1100
146,113.1,113.1,113.09,113.09,200
147,113.11,113.115,113.11,113.11,800
148,113.12,113.12,113.1,113.1,200
149,113.12,113.12,113.12,113.12,100
150,113.18,113.18,113.13,113.13,900
151,113.16,113.18,113.16,113.18,300
152,113.14,113.16,113.14,113.16,800
153,113.09,113.11,113.09,113.11,400
154,113.1,113.1,113.1,113.1,100
155,113.11,113.12,113.08,113.11,3274
157,113.1,113.11,113.1,113.11,300
158,113.12,113.12,113.1,113.11,2200
159,113.11,113.11,113.11,113.11,727
161,113.12,113.12,113.12,113.12,300
162,113.1697,113.1697,113.14,113.14,700
163,113.17,113.17,113.17,113.17,500
164,113.2,113.2,113.18,113.19,1200
165,113.2,113.2,113.18,113.18,200
166,113.21,113.21,113.18,113.21,1405
167,113.2,113.2,113.19,113.2,1400
169,113.19,113.21,113.19,113.195,600
171,113.21,113.21,113.2,113.2,900
172,113.19,113.21,113.19,113.21,700
173,113.18,113.18,113.18,113.18,101
174,113.18,113.19,113.18,113.19,200
175,113.17,113.19,113.17,113.19,400
176,113.18,113.19,113.17,113.17,400
177,113.161,113.161,113.161,113.161,155
178,113.19,113.19,113.19,113.19,100
179,113.19,113.19,113.16,113.17,1755
180,113.19,113.2,113.19,113.2,300
181,113.2,113.2,113.2,113.2,100
182,113.18,113.19,113.18,113.19,700
183,113.18,113.19,113.18,113.19,500
184,113.2,113.2,113.2,113.2,300
185,113.21,113.22,113.21,113.22,500
186,113.19,113.21,113.19,113.21,500
187,113.19,113.19,113.18,113.18,300
188,113.18,113.2,113.18,113.2,1200
189,113.16,113.17,113.16,113.17,451
190,113.2,113.2,113.16,113.16,3800
191,113.2,113.21,113.2,113.21,400
192,113.22,113.22,113.2,113.2,400
193,113.24,113.24,113.2,113.2,1966
195,113.23,113.23,113.23,113.23,100
196,113.23,113.23,113.22,113.22,300
198,113.25,113.2664,113.21,113.24,8210
199,113.2,113.26,113.2,113.26,7000
200,113.06,113.2,113.06,113.2,1400
201,113.06,113.1,113.06,113.06,800
202,113.05,113.05,113.05,113.05,100
203,113.07,113.07,113.03,113.06,900
204,113.05,113.06,113.05,113.06,300
205,113.07,113.07,113.055,113.06,400
206,113.115,113.115,113.06,113.06,549
207,113.15,113.15,113.11,113.12,600
208,113.16,113.16,113.14,113.15,700
209,113.15,113.16,113.14,113.14,700
211,113.28,113.28,113.159,113.17,3182
212,113.33,113.33,113.31,113.31,1790
213,113.34,113.36,113.32,113.32,500
214,113.34,113.34,113.33,113.33,700
215,113.34,113.34,113.34,113.34,200
216,113.38,113.38,113.36,113.36,500
217,113.38,113.38,113.37,113.38,700
218,113.39,113.39,113.37,113.37,800
219,113.37,113.37,113.37,113.37,200
220,113.37,113.37,113.37,113.37,200
221,113.41,113.43,113.4,113.4,1500
222,113.38,113.39,113.38,113.39,300
224,113.39,113.39,113.39,113.39,200
225,113.37,113.39,113.37,113.385,4100
226,113.37,113.37,113.37,113.37,100
227,113.38,113.38,113.37,113.37,400
228,113.385,113.385,113.38,113.385,400
229,113.4,113.4,113.39,113.39,1800
230,113.43,113.43,113.41,113.41,400
231,113.43,113.43,113.4,113.43,400
232,113.42,113.44,113.415,113.43,800
233,113.5,113.5,113.46,113.46,506
234,113.55,113.55,113.5,113.5119,1089
235,113.545,113.56,113.54,113.56,800
236,113.45,113.55,113.45,113.55,4093
237,113.47,113.5,113.47,113.49,1100
238,113.49,113.49,113.475,113.49,727
239,113.46,113.48,113.46,113.48,200
240,113.47,113.47,113.46,113.46,200
241,113.43,113.46,113.43,113.46,1400
242,113.41,113.41,113.39,113.39,400
243,113.32,113.4,113.32,113.4,808
244,113.32,113.37,113.32,113.3699,800
245,113.29,113.33,113.29,113.32,2400
246,113.3,113.31,113.3,113.3,800
247,113.33,113.33,113.3,113.3,200
248,113.3,113.3,113.3,113.3,200
249,113.31,113.33,113.31,113.315,600
250,113.32,113.32,113.32,113.32,150
251,113.37,113.37,113.3375,113.34,900
252,113.38,113.39,113.37,113.37,1420
253,113.39,113.39,113.37,113.38,400
254,113.38,113.38,113.36,113.37,1500
255,113.38,113.38,113.37,113.38,500
256,113.37,113.38,113.37,113.37,600
257,113.4,113.4,113.36,113.36,200
258,113.3782,113.38,113.37,113.37,1700
259,113.37,113.4,113.36,113.38,1700
260,113.37,113.39,113.37,113.37,700
261,113.4,113.4,113.3901,113.3901,676
262,113.41,113.41,113.3999,113.3999,1005
263,113.39,113.41,113.39,113.4,700
264,113.43,113.43,113.41,113.41,900
265,113.44,113.44,113.44,113.44,100
266,113.41,113.43,113.41,113.43,400
267,113.405,113.42,113.4,113.42,2231
268,113.39,113.43,113.39,113.41,2300
269,113.38,113.39,113.38,113.39,300
270,113.375,113.4,113.37,113.4,1100
271,113.38,113.38,113.37,113.37,200
272,113.37,113.38,113.37,113.38,900
273,113.35,113.36,113.35,113.36,300
274,113.35,113.35,113.35,113.35,100
275,113.35,113.35,113.34,113.35,1000
276,113.35,113.36,113.35,113.36,1100
277,113.33,113.35,113.33,113.35,500
278,113.33,113.33,113.33,113.33,100
279,113.34,113.34,113.34,113.34,400
280,113.34,113.35,113.34,113.35,2200
281,113.33,113.34,113.33,113.34,700
282,113.33,113.34,113.32,113.32,2600
283,113.37,113.37,113.34,113.34,3500
284,113.36,113.38,113.36,113.36,800
285,113.43,113.43,113.4,113.4,2600
286,113.425,113.45,113.42,113.45,2207
287,113.44,113.44,113.42,113.425,1788
288,113.47,113.47,113.45,113.45,923
289,113.48,113.48,113.46,113.47,1422
290,113.47,113.48,113.46,113.47,1943
291,113.5,113.501,113.4677,113.47,3179
292,113.51,113.52,113.49,113.49,1000
293,113.53,113.53,113.495,113.5,4281
294,113.54,113.54,113.53,113.5399,400
295,113.49,113.525,113.48,113.52,4356
296,113.51,113.53,113.49,113.49,1800
297,113.495,113.52,113.48,113.51,1799
298,113.5,113.5,113.49,113.49,1182
299,113.485,113.52,113.48,113.51,19850
300,113.5,113.5,113.4831,113.485,1622
301,113.43,113.485,113.43,113.485,8501
302,113.35,113.41,113.35,113.41,5200
303,113.34,113.37,113.3,113.35,5663
304,113.3499,113.3499,113.3,113.3379,773
305,113.38,113.39,113.3,113.3,4400
306,113.37,113.38,113.33,113.38,4700
307,113.411,113.411,113.35,113.37,6370
308,113.425,113.43,113.42,113.42,5611
309,113.42,113.44,113.42,113.43,600
310,113.42,113.43,113.42,113.43,400
311,113.39,113.44,113.39,113.44,4764
312,113.4,113.41,113.4,113.41,1300
313,113.417,113.42,113.41,113.41,642
314,113.41,113.42,113.41,113.41,2100
315,113.47,113.47,113.41,113.41,3167
316,113.46,113.47,113.46,113.47,400
317,113.4,113.45,113.39,113.45,4111
318,113.42,113.42,113.41,113.41,1200
319,113.39,113.42,113.39,113.42,2200
320,113.4,113.4,113.39,113.4,3900
321,113.4,113.41,113.39,113.395,3200
323,113.38,113.41,113.38,113.4,1651
325,113.38,113.38,113.3624,113.38,1670
326,113.37,113.38,113.36,113.36,1800
327,113.36,113.37,113.36,113.37,1599
328,113.37,113.38,113.37,113.37,3305
329,113.38,113.39,113.37,113.37,1492
330,113.37,113.37,113.37,113.37,604
331,113.375,113.375,113.37,113.37,200
332,113.39,113.4,113.38,113.38,3255
333,113.385,113.4013,113.38,113.4,3798
334,113.39,113.39,113.385,113.39,1165
335,113.4,113.44,113.4,113.41,5006
336,113.38,113.41,113.38,113.4,1600
337,113.41,113.41,113.38,113.38,1300
338,113.42,113.42,113.41,113.41,2501
339,113.425,113.43,113.41,113.42,1604
340,113.43,113.43,113.42,113.42,1003
341,113.41,113.44,113.4,113.4239,2803
342,113.39,113.4,113.39,113.4,1105
343,113.39,113.39,113.37,113.38,1900
344,113.42,113.42,113.38,113.38,3100
345,113.43,113.43,113.41,113.42,7700
346,113.53,113.53,113.44,113.44,2242
347,113.55,113.55,113.55,113.55,200
348,113.56,113.56,113.53,113.55,3999
349,113.53,113.55,113.53,113.55,1900
350,113.54,113.54,113.525,113.525,900
351,113.55,113.55,113.54,113.54,1400
352,113.565,113.565,113.55,113.5513,1481
353,113.57,113.59,113.565,113.565,2400
354,113.57,113.59,113.57,113.58,1569
355,113.5,113.58,113.5,113.575,6390
356,113.49,113.51,113.49,113.5,1600
357,113.5,113.5,113.48,113.49,800
358,113.465,113.5,113.45,113.5,5290
359,113.39,113.46,113.37,113.46,17311
360,113.37,113.42,113.36,113.4,11538
361,113.41,113.41,113.37,113.37,5514
362,113.4,113.4,113.39,113.39,7855
363,113.415,113.415,113.39,113.4,16359
364,113.4,113.41,113.38,113.41,5230
365,113.42,113.42,113.38,113.41,2900
366,113.57,113.57,113.42,113.43,5641
367,113.6,113.6,113.56,113.58,4917
368,113.62,113.63,113.57,113.57,4570
369,113.58,113.65,113.58,113.65,7605
370,113.625,113.63,113.59,113.59,5023
371,113.61,113.62,113.6,113.6,2408
372,113.56,113.63,113.56,113.63,7475
373,113.56,113.56,113.53,113.56,6824
374,113.6,113.6,113.56,113.56,4455
375,113.635,113.66,113.61,113.61,7326
376,113.65,113.65,113.63,113.63,14076
377,113.65,113.665,113.65,113.66,16398
378,113.6125,113.6525,113.6,113.65,7200
379,113.58,113.61,113.58,113.61,3513
380,113.58,113.6,113.58,113.585,10150
381,113.595,113.61,113.585,113.585,19863
382,113.56,113.595,113.55,113.595,13314
383,113.56,113.5799,113.56,113.56,6450
384,113.54,113.5725,113.52,113.5725,12321
385,113.53,113.54,113.52,113.53,13284
386,113.53,113.55,113.52,113.54,10465
387,113.5,113.53,113.5,113.53,5300
388,113.545,113.56,113.49,113.51,15024
389,113.55,113.58,113.52,113.54,15586
