PPG,PPG Industries,Materials,8,Specialty Chemicals,26530268862,1432427
a1504618200,104.46,104.46,104.46,104.46,10253
1,104.25,104.405,104.25,104.405,200
2,104.31,104.31,104.31,104.31,100
3,104.25,104.43,104.25,104.31,3300
4,104.25,104.335,104.25,104.335,1700
5,104.2,104.28,104.2,104.24,700
6,104.42,104.42,104.42,104.42,100
7,104.375,104.4,104.32,104.4,700
8,104.4008,104.43,104.4,104.4,1200
10,104.35,104.4,104.285,104.4,1800
11,104.39,104.4,104.35,104.36,2600
12,104.44,104.45,104.44,104.45,679
13,104.49,104.5411,104.47,104.47,2156
14,104.54,104.54,104.46,104.49,600
15,104.47,104.54,104.47,104.54,493
16,104.55,104.55,104.51,104.51,900
17,104.549,104.58,104.46,104.57,2120
18,104.55,104.55,104.54,104.5407,916
19,104.44,104.44,104.44,104.44,100
20,104.475,104.475,104.45,104.45,400
21,104.49,104.49,104.45,104.47,500
22,104.52,104.52,104.47,104.47,1700
23,104.525,104.55,104.525,104.54,929
24,104.55,104.56,104.53,104.53,1300
25,104.5,104.54,104.5,104.54,200
26,104.49,104.5,104.48,104.5,600
28,104.55,104.56,104.49,104.49,1600
29,104.56,104.57,104.55,104.55,700
30,104.6,104.6,104.525,104.55,1981
31,104.55,104.7,104.55,104.65,1359
32,104.66,104.69,104.62,104.62,3200
33,104.62,104.65,104.615,104.65,800
34,104.52,104.62,104.52,104.62,500
35,104.52,104.52,104.52,104.52,100
36,104.52,104.58,104.52,104.535,3488
37,104.5,104.51,104.47,104.51,1600
38,104.49,104.5,104.42,104.5,3300
39,104.45,104.49,104.43,104.43,400
40,104.46,104.49,104.46,104.49,200
41,104.47,104.5,104.46,104.49,3700
42,104.48,104.49,104.48,104.49,300
43,104.52,104.53,104.49,104.49,2900
44,104.47,104.52,104.47,104.52,400
45,104.47,104.47,104.47,104.47,807
46,104.42,104.46,104.42,104.46,1800
47,104.505,104.53,104.46,104.46,1902
48,104.5,104.5,104.47,104.47,600
49,104.485,104.485,104.47,104.47,200
50,104.49,104.51,104.49,104.5,2794
51,104.48,104.5,104.48,104.5,600
52,104.45,104.47,104.41,104.47,700
53,104.42,104.45,104.42,104.42,850
54,104.42,104.42,104.41,104.41,300
55,104.37,104.42,104.37,104.42,1600
56,104.32,104.32,104.32,104.32,300
57,104.37,104.37,104.32,104.32,3000
59,104.35,104.3725,104.35,104.3725,1012
60,104.35,104.38,104.35,104.37,3342
61,104.35,104.35,104.33,104.35,1040
62,104.33,104.355,104.32,104.32,1804
63,104.325,104.35,104.32,104.35,1900
64,104.3201,104.35,104.3201,104.35,296
65,104.28,104.33,104.28,104.325,1000
66,104.31,104.33,104.28,104.28,1200
67,104.31,104.31,104.31,104.31,100
68,104.31,104.31,104.31,104.31,100
69,104.3,104.35,104.3,104.34,3703
70,104.313,104.313,104.3,104.31,730
71,104.22,104.31,104.21,104.31,1866
72,104.17,104.2,104.17,104.2,400
73,104.21,104.21,104.14,104.17,1803
74,104.18,104.2,104.18,104.18,1010
75,104.14,104.18,104.14,104.17,900
76,104.09,104.1,104.09,104.1,700
77,104.09,104.09,104.065,104.07,1100
78,104.07,104.12,104.07,104.09,3241
79,104.05,104.09,104.05,104.09,600
80,104.07,104.07,104.07,104.07,100
81,104.07,104.07,104.07,104.07,300
82,104.06,104.07,104.06,104.07,1000
83,104.07,104.07,104.07,104.07,100
84,104.05,104.05,104.05,104.05,100
85,104.07,104.07,104.05,104.05,245
86,104,104.05,104,104.05,1900
87,104.005,104.06,103.99,104,3300
88,104,104.01,103.99,104.01,548
89,103.95,103.98,103.95,103.98,300
90,103.99,104,103.955,103.955,2100
91,104.02,104.02,103.96,104,3000
92,104,104,104,104,400
93,104.01,104.03,104,104,2800
94,104.15,104.15,104.03,104.04,2175
95,104.21,104.21,104.17,104.17,750
96,104.2,104.2,104.19,104.19,1800
97,104.18,104.19,104.17,104.19,1149
98,104.25,104.27,104.21,104.21,1809
99,104.17,104.25,104.17,104.25,2200
100,104.17,104.17,104.15,104.17,832
101,104.16,104.165,104.16,104.165,900
102,104.15,104.16,104.15,104.16,400
103,104.2,104.2,104.16,104.17,1365
104,104.194,104.1997,104.1886,104.1997,325
105,104.17,104.2,104.17,104.19,300
106,104.2,104.2,104.2,104.2,100
107,104.17,104.2,104.16,104.18,2400
108,104.21,104.21,104.17,104.18,500
109,104.215,104.215,104.21,104.21,500
110,104.1649,104.23,104.1649,104.23,1500
111,104.175,104.19,104.16,104.19,1031
112,104.16,104.2,104.16,104.185,11200
113,104.19,104.19,104.17,104.17,600
114,104.15,104.15,104.15,104.15,100
115,104.19,104.19,104.17,104.18,1300
116,104.2,104.2,104.19,104.19,500
117,104.18,104.2,104.18,104.2,1000
118,104.17,104.17,104.16,104.16,200
119,104.19,104.2,104.19,104.2,892
120,104.19,104.195,104.18,104.195,900
121,104.2,104.2,104.18,104.195,1008
122,104.22,104.23,104.21,104.21,1800
123,104.17,104.229,104.17,104.229,2000
124,104.17,104.19,104.17,104.19,530
125,104.16,104.16,104.16,104.16,100
126,104.18,104.18,104.18,104.18,400
127,104.18,104.21,104.18,104.19,2950
128,104.16,104.16,104.16,104.16,100
129,104.19,104.21,104.19,104.2,325
130,104.2,104.2,104.1902,104.1902,340
131,104.16,104.2067,104.16,104.2,2644
132,104.14,104.16,104.14,104.16,200
133,104.1,104.12,104.1,104.12,200
134,104.1203,104.1203,104.1,104.1,420
135,104.1,104.1,104.1,104.1,100
136,104.05,104.13,104.05,104.1,700
137,104.02,104.02,104.02,104.02,200
138,104.04,104.04,104.03,104.035,500
139,104.03,104.06,104.03,104.05,2807
140,104.01,104.0228,104.01,104.0228,200
141,104.04,104.04,104.02,104.03,4041
142,104.01,104.02,104.01,104.02,948
143,104.02,104.03,104.01,104.01,2550
144,104.01,104.02,104.01,104.01,1588
145,104,104.01,103.99,104.01,1509
146,103.96,103.99,103.96,103.99,200
147,104,104,103.98,103.98,904
148,104.0001,104.04,104,104.01,2809
149,104,104.02,104,104.02,700
150,103.99,103.99,103.99,103.99,300
151,103.93,103.9801,103.93,103.9801,812
152,103.85,103.92,103.85,103.92,800
153,103.76,103.8342,103.75,103.834,1900
154,103.77,103.77,103.76,103.76,200
155,103.71,103.7402,103.67,103.72,2787
156,103.62,103.69,103.62,103.69,1050
157,103.59,103.61,103.59,103.61,200
158,103.59,103.5921,103.58,103.58,492
159,103.63,103.63,103.58,103.58,2600
160,103.58,103.6136,103.58,103.6136,833
161,103.63,103.63,103.59,103.59,1678
162,103.615,103.615,103.61,103.61,900
163,103.61,103.62,103.6084,103.6084,312
164,103.51,103.6,103.51,103.6,1149
165,103.48,103.48,103.37,103.47,5218
166,103.54,103.575,103.49,103.49,1800
167,103.56,103.56,103.54,103.54,700
168,103.51,103.56,103.51,103.56,1000
169,103.56,103.57,103.55,103.55,1717
170,103.57,103.58,103.55,103.55,1100
171,103.52,103.56,103.51,103.545,1335
172,103.56,103.58,103.5,103.5,1500
173,103.59,103.59,103.57,103.57,1400
174,103.63,103.63,103.61,103.61,600
175,103.6,103.6042,103.58,103.6042,1014
176,103.54,103.57,103.54,103.57,200
178,103.53,103.551,103.53,103.5401,1023
179,103.535,103.54,103.52,103.52,1700
180,103.53,103.54,103.5,103.53,8473
181,103.5,103.5203,103.5,103.5203,5769
182,103.54,103.54,103.5,103.5,1400
183,103.48,103.54,103.48,103.54,28749
184,103.41,103.49,103.395,103.48,24497
185,103.45,103.45,103.42,103.42,3795
186,103.52,103.52,103.4475,103.4475,1595
187,103.492,103.54,103.492,103.53,3539
188,103.5,103.52,103.485,103.51,1523
189,103.5005,103.5005,103.5005,103.5005,250
190,103.54,103.54,103.515,103.515,1200
191,103.53,103.54,103.52,103.54,1100
192,103.6,103.62,103.53,103.53,4455
193,103.57,103.6,103.55,103.6,1028
194,103.6,103.61,103.57,103.58,1200
195,103.58,103.615,103.58,103.6,850
196,103.55,103.56,103.54,103.56,1200
197,103.54,103.54,103.54,103.54,200
198,103.57,103.57,103.53,103.54,1300
199,103.525,103.54,103.525,103.54,900
200,103.54,103.54,103.525,103.525,1400
201,103.54,103.56,103.54,103.55,800
202,103.54,103.54,103.52,103.54,800
203,103.51,103.525,103.51,103.525,600
204,103.56,103.56,103.53,103.53,2297
205,103.57,103.57,103.55,103.55,3003
206,103.58,103.58,103.57,103.57,200
207,103.575,103.58,103.56,103.58,1053
208,103.59,103.6,103.59,103.59,876
209,103.63,103.63,103.61,103.61,600
210,103.6,103.63,103.6,103.63,1163
211,103.58,103.58,103.58,103.58,200
212,103.49,103.55,103.49,103.55,10064
213,103.52,103.52,103.49,103.49,4926
214,103.52,103.52,103.49,103.49,3332
215,103.51,103.51,103.49,103.51,2702
216,103.49,103.52,103.48,103.52,11135
217,103.51,103.52,103.495,103.51,1500
218,103.53,103.54,103.52,103.52,600
219,103.54,103.55,103.5271,103.55,550
220,103.53,103.55,103.53,103.54,1300
221,103.515,103.52,103.51,103.52,500
222,103.53,103.53,103.5,103.5,500
223,103.5,103.51,103.49,103.5,7303
224,103.52,103.52,103.5,103.5,500
225,103.51,103.52,103.51,103.52,300
226,103.54,103.54,103.53,103.53,2069
227,103.56,103.56,103.54,103.54,358
228,103.54,103.56,103.54,103.56,1483
229,103.54,103.56,103.5393,103.5393,2333
230,103.64,103.66,103.54,103.54,2612
231,103.65,103.66,103.63,103.63,1850
232,103.71,103.71,103.66,103.67,1279
233,103.71,103.72,103.7,103.71,1300
234,103.71,103.71,103.69,103.7,1300
235,103.66,103.71,103.66,103.71,1000
236,103.63,103.64,103.63,103.64,430
237,103.6,103.6,103.6,103.6,100
239,103.601,103.601,103.601,103.601,100
240,103.6,103.63,103.6,103.63,500
241,103.58,103.603,103.58,103.6001,1500
242,103.56,103.57,103.56,103.57,818
243,103.5,103.56,103.5,103.56,4321
244,103.51,103.53,103.51,103.52,1300
245,103.5,103.51,103.5,103.51,300
246,103.51,103.51,103.51,103.51,500
247,103.56,103.56,103.52,103.52,1910
248,103.57,103.57,103.55,103.56,700
249,103.66,103.66,103.57,103.57,1000
250,103.6338,103.65,103.6338,103.65,1120
253,103.63,103.63,103.63,103.63,100
254,103.62,103.69,103.62,103.68,3550
255,103.61,103.61,103.59,103.61,1600
256,103.5852,103.5852,103.5852,103.5852,190
257,103.6216,103.65,103.6,103.6,3240
258,103.625,103.63,103.59,103.62,2409
259,103.6201,103.6201,103.6201,103.6201,200
260,103.6439,103.67,103.6439,103.67,1800
261,103.7,103.7,103.65,103.65,802
262,103.72,103.73,103.7,103.7,500
263,103.7,103.77,103.66,103.74,3390
264,103.67,103.69,103.65,103.69,300
265,103.685,103.69,103.655,103.665,2723
266,103.69,103.7,103.675,103.7,1900
267,103.65,103.7,103.65,103.7,1200
268,103.685,103.685,103.66,103.68,2000
269,103.7025,103.73,103.685,103.685,7790
270,103.75,103.75,103.7,103.71,2552
271,103.8,103.82,103.78,103.78,500
272,103.83,103.83,103.8,103.8,900
273,103.83,103.83,103.83,103.83,100
274,103.85,103.85,103.85,103.85,500
275,103.86,103.86,103.84,103.84,200
276,103.82,103.86,103.82,103.86,900
278,103.75,103.82,103.75,103.82,1007
279,103.785,103.79,103.78,103.78,1401
280,103.76,103.775,103.76,103.77,1100
281,103.79,103.8,103.77,103.78,2525
282,103.77,103.77,103.77,103.77,150
283,103.8,103.8,103.77,103.77,1400
284,103.8,103.8,103.79,103.79,300
285,103.78,103.805,103.78,103.7975,1700
286,103.75,103.77,103.75,103.77,1248
287,103.7511,103.7511,103.75,103.75,391
288,103.74,103.76,103.74,103.76,1300
289,103.71,103.71,103.71,103.71,244
290,103.74,103.74,103.72,103.72,2607
291,103.73,103.74,103.73,103.74,800
292,103.76,103.76,103.75,103.75,700
293,103.75,103.77,103.75,103.77,393
294,103.76,103.76,103.76,103.76,400
295,103.73,103.76,103.73,103.76,700
296,103.75,103.75,103.745,103.75,1500
297,103.73,103.73,103.73,103.73,201
298,103.745,103.745,103.739,103.739,1100
300,103.74,103.78,103.74,103.75,3497
301,103.74,103.74,103.74,103.74,100
303,103.73,103.77,103.73,103.76,1538
304,103.71,103.73,103.71,103.73,643
305,103.68,103.71,103.66,103.71,1160
306,103.66,103.725,103.66,103.68,2900
307,103.7,103.72,103.67,103.67,3911
308,103.7,103.7,103.67,103.7,2200
309,103.66,103.69,103.66,103.69,977
310,103.66,103.67,103.65,103.66,1747
311,103.645,103.66,103.63,103.6499,2702
312,103.64,103.64,103.64,103.64,300
313,103.6562,103.6562,103.64,103.64,977
314,103.69,103.69,103.63,103.65,1700
316,103.6987,103.6987,103.68,103.68,911
317,103.65,103.69,103.65,103.69,1144
318,103.6,103.62,103.6,103.62,600
319,103.56,103.58,103.56,103.58,1600
320,103.54,103.54,103.52,103.52,200
321,103.569,103.569,103.5375,103.54,2949
322,103.56,103.56,103.56,103.56,100
323,103.56,103.58,103.56,103.56,2100
324,103.55,103.55,103.55,103.55,1400
325,103.54,103.55,103.54,103.54,1399
326,103.54,103.54,103.53,103.54,1100
327,103.54,103.54,103.52,103.52,800
328,103.53,103.54,103.53,103.54,200
329,103.555,103.56,103.53,103.53,2024
330,103.56,103.57,103.53,103.57,2715
331,103.56,103.56,103.56,103.56,300
332,103.6,103.6,103.56,103.56,1226
333,103.62,103.63,103.62,103.63,1000
334,103.59,103.61,103.59,103.61,1454
335,103.605,103.605,103.605,103.605,200
336,103.57,103.59,103.5476,103.59,1000
337,103.5312,103.55,103.5312,103.55,613
338,103.53,103.53,103.5,103.53,2400
339,103.565,103.57,103.53,103.53,1106
340,103.56,103.59,103.56,103.57,1600
341,103.52,103.555,103.5,103.555,3428
342,103.51,103.52,103.51,103.52,207
343,103.52,103.52,103.51,103.51,400
344,103.53,103.53,103.525,103.53,600
345,103.58,103.58,103.53,103.53,2075
346,103.55,103.59,103.55,103.58,2300
347,103.58,103.58,103.52,103.54,3549
348,103.595,103.595,103.595,103.595,100
349,103.58,103.58,103.58,103.58,500
350,103.57,103.59,103.57,103.58,5300
351,103.5739,103.5739,103.535,103.56,5300
352,103.55,103.57,103.54,103.57,946
353,103.56,103.56,103.56,103.56,400
354,103.55,103.57,103.55,103.57,1100
355,103.56,103.56,103.54,103.55,1609
356,103.5992,103.5992,103.555,103.555,1103
357,103.62,103.62,103.6,103.6,600
358,103.6,103.62,103.6,103.62,1767
359,103.65,103.65,103.6,103.6,3291
360,103.65,103.67,103.65,103.65,3518
361,103.66,103.72,103.64,103.64,4952
362,103.63,103.65,103.615,103.65,1600
363,103.62,103.62,103.62,103.62,200
364,103.61,103.62,103.595,103.62,2793
365,103.63,103.64,103.61,103.61,1400
366,103.56,103.63,103.55,103.63,4000
367,103.52,103.56,103.52,103.56,2561
368,103.52,103.52,103.52,103.52,100
369,103.51,103.52,103.51,103.51,1203
370,103.53,103.53,103.51,103.51,3900
371,103.5,103.53,103.5,103.53,4893
372,103.5,103.52,103.495,103.5,8012
373,103.5,103.51,103.5,103.5,600
374,103.5,103.5,103.5,103.5,3286
375,103.51,103.5201,103.5,103.51,6265
376,103.5,103.5096,103.5,103.5,5203
377,103.5,103.51,103.5,103.51,5908
378,103.49,103.5,103.49,103.49,5854
379,103.51,103.53,103.5,103.5,3134
380,103.53,103.53,103.5,103.51,5742
381,103.45,103.52,103.445,103.52,14736
382,103.44,103.45,103.42,103.45,3879
383,103.42,103.4566,103.4,103.45,6217
384,103.44,103.47,103.42,103.43,4792
385,103.44,103.49,103.44,103.44,7145
386,103.41,103.46,103.41,103.44,7900
387,103.39,103.4,103.35,103.4,6502
388,103.37,103.3901,103.32,103.39,13097
389,103.4,103.42,103.38,103.38,8139
390,103.32,103.45,103.32,103.42,17475
