EOG,EOG Resources,Energy,3,Oil & Gas Exploration & Production,53192697176,3394014
a1499261460,91.98,91.98,91.72,91.82,34318
1,91.8,91.8826,91.8,91.86,1530
2,91.885,91.9299,91.77,91.91,13461
3,92.155,92.17,91.885,91.885,7795
4,92.13,92.14,92.08,92.12,8019
5,92.05,92.19,92,92.133,16571
6,91.865,92.105,91.83,92.045,28707
7,91.83,91.96,91.73,91.85,12467
8,91.59,91.91,91.59,91.85,16493
9,91.77,91.86,91.53,91.61,10580
10,91.96,92.03,91.68,91.75,12543
11,91.9,92.04,91.9,91.95,8503
12,91.88,91.99,91.88,91.9,11593
13,91.81,91.93,91.7701,91.91,6400
14,91.95,91.99,91.77,91.805,5600
15,91.78,91.96,91.775,91.96,19985
16,91.76,91.82,91.67,91.76,8790
17,91.81,91.82,91.75,91.76,16024
18,91.88,91.88,91.76,91.769,4448
19,91.87,91.89,91.78,91.83,7450
20,91.815,91.86,91.8,91.86,11851
21,91.86,91.97,91.81,91.82,12951
22,91.87,91.93,91.81,91.85,8433
23,91.95,91.95,91.87,91.87,3180
24,91.8875,92.01,91.8875,91.955,6914
25,91.89,91.9,91.83,91.9,10915
26,91.92,91.92,91.84,91.89,6400
27,91.89,91.925,91.83,91.91,7729
28,91.95,91.99,91.82,91.85,8916
29,91.84,92,91.84,92,6312
30,91.8345,91.96,91.83,91.83,6815
31,91.82,91.86,91.75,91.85,21257
32,91.48,91.82,91.445,91.775,6630
33,91.34,91.46,91.26,91.45,8153
34,91.14,91.33,91.13,91.33,7147
35,91.15,91.15,91.03,91.12,4002
36,91.05,91.12,91.05,91.12,1600
37,90.94,91.01,90.9,91,3753
38,90.97,91.05,90.93,90.94,2994
39,90.97,91.01,90.9,90.93,5000
40,90.89,90.975,90.88,90.96,4310
41,90.9192,90.92,90.83,90.84,2158
42,91.05,91.07,90.89,90.89,5110
43,90.86,91.07,90.83,91.069,5174
44,90.6939,90.848,90.665,90.84,5011
45,90.74,90.88,90.7136,90.72,5950
46,90.73,90.86,90.73,90.77,6300
47,90.82,90.86,90.72,90.73,2929
48,90.9,91.02,90.82,90.82,4777
49,90.97,90.98,90.88,90.91,3700
50,90.89,91.1,90.77,90.99,6535
51,90.99,90.99,90.82,90.85,3200
52,90.91,91.05,90.89,91,3877
53,90.91,90.91,90.8183,90.9,19364
54,90.93,90.93,90.87,90.92,6251
55,90.76,90.89,90.7,90.89,6746
56,90.79,90.79,90.66,90.715,7024
57,90.81,90.85,90.76,90.76,3006
58,90.74,90.79,90.74,90.78,2863
59,90.86,90.86,90.71,90.735,3312
60,90.79,90.88,90.79,90.86,3901
61,90.595,90.795,90.59,90.78,9400
62,90.54,90.59,90.51,90.59,10816
63,90.63,90.63,90.535,90.535,5783
64,90.71,90.71,90.64,90.64,2600
65,90.75,90.77,90.7,90.705,8000
66,90.64,90.79,90.62,90.77,7396
67,90.84,90.84,90.64,90.64,8613
68,90.63,90.79,90.63,90.79,2844
69,90.635,90.655,90.58,90.655,2922
70,90.69,90.69,90.57,90.62,4803
71,90.6511,90.74,90.65,90.74,2900
72,90.7207,90.745,90.6184,90.65,4601
73,90.71,90.74,90.67,90.725,3326
74,90.71,90.73,90.69,90.7,1539
75,90.65,90.77,90.65,90.68,2620
76,90.53,90.64,90.53,90.64,5989
77,90.53,90.61,90.41,90.53,34785
78,90.49,90.54,90.43,90.52,4963
79,90.53,90.53,90.44,90.48,3942
80,90.51,90.58,90.5061,90.515,2495
81,90.41,90.52,90.4,90.52,4776
82,90.4,90.45,90.39,90.39,4900
83,90.4,90.43,90.37,90.39,2700
84,90.31,90.38,90.31,90.37,1400
85,90.27,90.39,90.25,90.315,7000
86,90.34,90.35,90.25,90.25,11247
87,90.29,90.39,90.29,90.31,5036
88,90.3,90.31,90.28,90.28,4247
89,90.25,90.3,90.18,90.28,13647
90,90.24,90.28,90.22,90.26,3973
91,90.35,90.36,90.23,90.23,9085
92,90.4,90.44,90.36,90.36,8255
93,90.275,90.37,90.23,90.37,16060
94,90.3,90.32,90.26,90.29,18750
95,90.41,90.41,90.285,90.3,8500
96,90.35,90.41,90.3222,90.41,6737
97,90.41,90.42,90.37,90.37,4344
98,90.38,90.425,90.32,90.42,8761
99,90.4,90.41,90.3401,90.399,5462
100,90.43,90.43,90.36,90.4,3340
101,90.52,90.55,90.44,90.45,10305
102,90.41,90.51,90.41,90.51,6425
103,90.46,90.48,90.41,90.43,4325
104,90.41,90.44,90.35,90.44,3497
105,90.54,90.61,90.46,90.46,5349
106,90.66,90.66,90.56,90.56,6961
107,90.57,90.63,90.561,90.63,1762
108,90.57,90.58,90.54,90.54,5900
109,90.58,90.59,90.54,90.58,4100
110,90.48,90.62,90.48,90.61,3932
111,90.47,90.52,90.46,90.475,2724
112,90.3494,90.442,90.33,90.4412,4579
113,90.4243,90.45,90.35,90.37,3321
114,90.35,90.42,90.33,90.42,3504
115,90.36,90.44,90.35,90.35,2000
116,90.32,90.36,90.315,90.35,3650
117,90.2,90.32,90.18,90.32,7114
118,90.215,90.23,90.17,90.23,44703
119,90.21,90.22,90.17,90.21,22509
120,90.19,90.21,90.19,90.2,11761
121,90.07,90.205,90.05,90.205,12331
122,90.03,90.11,90.03,90.08,3401
123,89.9901,90.02,89.96,90.01,3977
124,90.11,90.12,90.01,90.02,13416
125,90.27,90.27,90.12,90.12,5300
126,90.26,90.29,90.2,90.26,6022
127,90.2995,90.34,90.245,90.247,4476
128,90.28,90.31,90.23,90.305,4100
129,90.35,90.36,90.28,90.3,2634
130,90.3863,90.3863,90.34,90.35,657
131,90.4,90.4,90.29,90.35,5360
132,90.36,90.36,90.3,90.35,2101
133,90.37,90.38,90.37,90.37,1027
134,90.37,90.41,90.35,90.38,9141
135,90.365,90.38,90.36,90.38,3400
136,90.465,90.47,90.38,90.38,3253
137,90.4,90.47,90.4,90.465,2271
138,90.461,90.51,90.42,90.42,3000
139,90.46,90.49,90.44,90.48,2617
140,90.53,90.55,90.48,90.48,2937
141,90.49,90.5399,90.49,90.515,1700
142,90.57,90.57,90.51,90.51,3705
143,90.66,90.66,90.57,90.57,3400
144,90.61,90.66,90.6,90.6446,3705
145,90.5618,90.62,90.56,90.62,971
146,90.48,90.5585,90.41,90.5585,3087
147,90.42,90.45,90.42,90.44,1700
148,90.54,90.54,90.42,90.42,4417
149,90.4,90.55,90.4,90.52,10654
150,90.42,90.43,90.39,90.39,7371
151,90.4,90.43,90.38,90.39,3767
152,90.45,90.48,90.38,90.41,3901
153,90.44,90.45,90.42,90.45,2489
154,90.48,90.51,90.445,90.45,2600
155,90.55,90.55,90.49,90.5,1401
156,90.51,90.53,90.46,90.53,1922
157,90.58,90.5999,90.49,90.49,2760
158,90.54,90.56,90.54,90.55,800
159,90.54,90.57,90.54,90.57,3139
160,90.61,90.61,90.56,90.56,700
161,90.5363,90.6,90.5363,90.6,3092
162,90.56,90.57,90.55,90.55,1650
163,90.58,90.58,90.51,90.55,3433
164,90.56,90.57,90.56,90.57,1230
165,90.649,90.649,90.55,90.56,2000
166,90.72,90.72,90.68,90.68,1600
167,90.7,90.74,90.7,90.73,2300
168,90.7403,90.77,90.67,90.68,2750
169,90.82,90.82,90.7799,90.7799,700
170,90.83,90.84,90.8,90.82,2594
171,90.84,90.87,90.83,90.83,1540
172,90.81,90.82,90.8,90.82,1108
173,90.761,90.84,90.75,90.82,5243
174,90.695,90.76,90.695,90.76,2819
175,90.74,90.74,90.68,90.72,3771
176,90.72,90.729,90.71,90.72,1983
177,90.72,90.72,90.69,90.69,300
178,90.76,90.76,90.72,90.72,801
179,90.81,90.81,90.77,90.77,1400
180,90.87,90.88,90.81,90.81,3601
181,90.93,90.98,90.89,90.89,6534
182,90.9,90.93,90.88,90.93,3800
183,90.92,90.92,90.9,90.9,2100
184,90.84,90.9,90.83,90.9,3325
185,90.84,90.89,90.84,90.86,2054
186,90.86,90.86,90.82,90.83,1209
187,90.9,90.9,90.86,90.87,1600
188,90.8183,90.86,90.8,90.86,3956
189,90.85,90.86,90.79,90.8,8712
190,90.88,90.89,90.84,90.84,1698
191,90.9,90.9,90.8,90.86,3669
192,90.84,90.899,90.83,90.872,3853
193,90.85,90.85,90.81,90.82,1300
194,90.88,90.89,90.86,90.86,900
195,90.81,90.88,90.78,90.88,4683
196,90.81,90.83,90.78,90.81,2700
197,90.8,90.83,90.77,90.81,4400
198,90.82,90.84,90.8,90.8,11333
199,90.79,90.81,90.78,90.81,14602
200,90.78,90.79,90.76,90.785,5414
201,90.8,90.84,90.79,90.79,2710
202,90.81,90.81,90.795,90.795,1450
203,90.795,90.8,90.75,90.79,2508
204,90.86,90.86,90.795,90.795,1767
205,90.785,90.86,90.78,90.86,1500
206,90.73,90.73,90.7,90.73,1300
207,90.74,90.74,90.69,90.7,2297
208,90.74,90.75,90.74,90.75,604
209,90.74,90.74,90.7,90.72,1500
210,90.71,90.73,90.695,90.72,1994
211,90.695,90.72,90.695,90.71,1961
212,90.73,90.73,90.68,90.68,1400
213,90.7406,90.75,90.74,90.74,2000
214,90.71,90.74,90.71,90.73,900
215,90.68,90.75,90.68,90.72,4067
216,90.73,90.73,90.67,90.7,4048
217,90.72,90.73,90.72,90.73,415
218,90.7,90.725,90.7,90.71,8451
219,90.7,90.7,90.66,90.69,2782
220,90.69,90.7,90.67,90.7,3150
221,90.72,90.72,90.6911,90.71,2000
222,90.71,90.71,90.7,90.71,1300
223,90.67,90.71,90.64,90.705,2415
224,90.61,90.66,90.59,90.636,9997
225,90.62,90.63,90.59,90.61,5300
226,90.62,90.66,90.61,90.61,2200
227,90.55,90.62,90.55,90.6,1326
228,90.49,90.56,90.45,90.56,2222
229,90.48,90.54,90.48,90.49,2501
230,90.52,90.52,90.47,90.49,2250
231,90.52,90.55,90.5,90.54,4119
232,90.51,90.52,90.49,90.5,2894
233,90.5,90.515,90.455,90.49,6041
234,90.515,90.53,90.51,90.51,745
235,90.52,90.52,90.475,90.51,4789
236,90.5,90.53,90.44,90.53,5700
237,90.48,90.51,90.46,90.48,2530
238,90.53,90.55,90.46,90.48,3000
239,90.535,90.57,90.52,90.523,4410
240,90.55,90.55,90.5056,90.53,3300
241,90.49,90.56,90.46,90.55,2515
242,90.44,90.48,90.41,90.465,2701
243,90.48,90.5,90.41,90.475,2400
244,90.57,90.58,90.4601,90.48,3094
245,90.6,90.6,90.55,90.55,4160
246,90.575,90.6,90.575,90.6,2500
247,90.6,90.6,90.56,90.58,1900
248,90.63,90.63,90.59,90.6,2398
249,90.6925,90.7,90.64,90.64,2132
250,90.76,90.76,90.7,90.7,3500
251,90.76,90.79,90.75,90.75,1153
252,90.68,90.72,90.6602,90.72,2600
253,90.595,90.64,90.57,90.62,1420
254,90.57,90.59,90.57,90.57,1100
255,90.585,90.62,90.56,90.57,3326
256,90.5,90.56,90.5,90.56,1000
257,90.6,90.6,90.51,90.51,2555
258,90.54,90.63,90.54,90.63,2100
259,90.5,90.56,90.5,90.55,1543
260,90.51,90.56,90.51,90.55,500
261,90.46,90.5,90.46,90.5,2980
262,90.49,90.53,90.45,90.45,3494
263,90.4608,90.47,90.4401,90.47,1020
264,90.47,90.57,90.47,90.48,2716
265,90.52,90.52,90.4541,90.48,1338
266,90.47,90.5,90.43,90.48,1198
267,90.42,90.49,90.42,90.45,3497
268,90.43,90.44,90.4,90.41,2600
269,90.451,90.48,90.43,90.43,1800
270,90.6,90.68,90.465,90.465,6840
271,90.53,90.58,90.52,90.58,2500
272,90.55,90.55,90.47,90.53,2700
273,90.545,90.569,90.5201,90.569,1700
274,90.445,90.54,90.44,90.54,16887
275,90.525,90.525,90.45,90.45,2391
276,90.48,90.54,90.47,90.52,3425
277,90.47,90.5,90.46,90.49,2007
278,90.44,90.44,90.35,90.44,4137
279,90.44,90.45,90.4,90.43,7120
280,90.41,90.49,90.41,90.46,2962
281,90.4471,90.4471,90.41,90.41,408
282,90.5625,90.5625,90.47,90.47,2811
283,90.54,90.56,90.48,90.55,3473
284,90.43,90.53,90.43,90.52,2702
285,90.48,90.51,90.45,90.45,1316
286,90.49,90.49,90.43,90.48,4048
287,90.48,90.48,90.457,90.48,1454
288,90.5,90.52,90.46,90.48,1431
289,90.52,90.52,90.47,90.48,1900
290,90.4,90.5,90.4,90.5,3576
291,90.36,90.46,90.36,90.42,3600
292,90.38,90.39,90.35,90.35,1500
293,90.38,90.4,90.35,90.36,2298
294,90.46,90.46,90.38,90.4,4779
295,90.49,90.51,90.464,90.47,1201
296,90.42,90.46,90.41,90.46,1900
297,90.4,90.43,90.35,90.415,5551
298,90.366,90.42,90.3,90.41,5692
299,90.3624,90.392,90.32,90.39,4951
300,90.38,90.41,90.35,90.39,4364
301,90.35,90.38,90.35,90.36,1100
302,90.3,90.36,90.3,90.34,1339
303,90.22,90.29,90.22,90.29,1110
304,90.24,90.24,90.22,90.22,2968
305,90.2501,90.3,90.24,90.24,5996
306,90.28,90.29,90.26,90.28,6600
307,90.3,90.3,90.271,90.271,5315
308,90.3,90.3,90.27,90.3,3110
309,90.34,90.34,90.31,90.31,2002
310,90.34,90.34,90.32,90.34,700
311,90.29,90.34,90.29,90.34,1950
312,90.28,90.31,90.26,90.31,4600
313,90.2681,90.2825,90.24,90.2825,6132
314,90.27,90.28,90.24,90.24,800
315,90.31,90.32,90.25,90.28,5524
316,90.28,90.33,90.26,90.33,4200
317,90.23,90.28,90.23,90.26,8650
318,90.1,90.23,90.09,90.22,5827
319,90.1,90.1,90.03,90.07,3400
320,90.06,90.08,90.03,90.08,1404
321,90.01,90.05,89.99,90.03,3790
322,90.07,90.07,90,90.01,2800
323,90.11,90.12,90.065,90.07,2102
324,90.07,90.14,90.03,90.1,5690
325,90.1,90.145,90.09,90.09,3300
326,90.05,90.1,90.05,90.1,3199
327,90.04,90.07,90,90.05,3014
328,90.03,90.06,90.005,90.02,5838
329,90.07,90.08,90.03,90.04,3003
330,90.06,90.07,90.04,90.06,3022
331,90.11,90.11,90.025,90.03,3769
332,90.105,90.14,90.08,90.14,2538
333,90.05,90.11,90.05,90.11,2443
334,90.08,90.08,89.99,90.03,6644
335,90.06,90.08,90.03,90.05,3043
336,90.1097,90.1097,90.05,90.06,3750
337,90.11,90.13,90.09,90.13,3150
338,90.16,90.19,90.11,90.13,5698
339,90.12,90.19,90.09,90.18,11586
340,90.11,90.13,90.08,90.12,4173
341,90.03,90.11,90.03,90.1,9175
342,90.05,90.1,90.03,90.06,2600
343,90.03,90.04,90,90.04,3681
344,90.06,90.06,90,90.02,4600
345,90.08,90.09,90.065,90.07,1900
346,90.059,90.08,90.05,90.075,4100
347,90.06,90.0935,90.05,90.06,4975
348,90.03,90.06,90.02,90.06,2600
349,90.05,90.05,90.025,90.04,4080
350,90.07,90.085,90.05,90.05,2682
351,90.03,90.08,90.03,90.08,3780
352,90.03,90.04,90.02,90.03,3400
353,90.09,90.09,90.03,90.04,7452
354,90.11,90.12,90.09,90.09,2515
355,90.12,90.12,90.08,90.1,2719
356,90.17,90.18,90.13,90.13,3950
357,90.22,90.22,90.17,90.17,3932
358,90.24,90.24,90.2,90.21,2965
359,90.27,90.31,90.23,90.25,6075
360,90.3,90.3,90.265,90.265,1988
361,90.35,90.37,90.31,90.31,3883
362,90.37,90.37,90.32,90.34,4408
363,90.35,90.38,90.34,90.37,4093
364,90.345,90.35,90.32,90.35,4760
365,90.32,90.39,90.32,90.3461,6086
366,90.27,90.33,90.265,90.315,2193
367,90.375,90.38,90.265,90.27,10034
368,90.35,90.38,90.35,90.35,2983
369,90.38,90.41,90.355,90.36,6997
370,90.345,90.38,90.34,90.37,13065
371,90.325,90.37,90.32,90.36,4035
372,90.32,90.33,90.315,90.32,6244
373,90.32,90.34,90.31,90.33,7760
374,90.315,90.33,90.3,90.32,11031
375,90.305,90.325,90.23,90.32,8908
376,90.25,90.3,90.23,90.3,5998
377,90.24,90.25,90.21,90.24,8424
378,90.15,90.24,90.13,90.24,8169
379,90.21,90.225,90.1601,90.17,23207
380,90.2,90.21,90.17,90.21,5879
381,90.19,90.2,90.16,90.2,9658
382,90.16,90.19,90.15,90.18,11917
383,90.215,90.22,90.16,90.17,8209
384,90.25,90.25,90.2,90.21,13887
385,90.28,90.28,90.23,90.25,11969
386,90.33,90.34,90.28,90.28,11420
387,90.28,90.33,90.28,90.32,16943
388,90.355,90.36,90.27,90.27,15864
389,90.29,90.37,90.27,90.355,35809
