PPG,PPG Industries,Materials,8,Specialty Chemicals,28523492297,1234070
a1499261400,111.22,111.22,111.22,111.22,27782
1,111.54,111.6,111.34,111.35,3383
2,111.51,111.51,111.345,111.5,2605
3,111.435,111.48,111.435,111.435,761
4,111.365,111.44,111.28,111.44,2600
5,111.3175,111.3175,111.3175,111.3175,100
6,111.378,111.43,111.27,111.27,1881
7,111.14,111.375,111.14,111.375,2073
8,111.14,111.185,111.14,111.185,200
9,111.14,111.18,111.03,111.14,3810
10,111.01,111.15,110.95,111.15,1834
11,111.14,111.18,111.025,111.025,1400
12,111.14,111.14,111.11,111.11,500
13,111.09,111.11,111.06,111.11,1275
14,110.995,111.05,110.97,111,2500
15,110.975,110.99,110.91,110.99,1900
16,110.9,111.04,110.89,110.99,1988
17,110.805,110.88,110.805,110.88,1900
18,110.76,110.84,110.76,110.84,2819
19,110.73,110.81,110.69,110.75,3100
20,110.79,110.79,110.66,110.66,700
21,111.02,111.02,110.8,110.8,1400
22,110.96,111.04,110.96,111.03,1954
24,110.955,110.955,110.94,110.94,200
25,110.9,110.985,110.87,110.985,1513
26,110.8,110.87,110.8,110.84,1800
27,110.76,110.776,110.75,110.75,430
28,110.735,110.735,110.66,110.73,1046
29,110.69,110.73,110.69,110.73,700
30,110.725,110.725,110.725,110.725,100
31,110.71,110.76,110.69,110.76,2831
32,110.66,110.66,110.66,110.66,200
33,110.6,110.68,110.52,110.68,2970
34,110.61,110.61,110.61,110.61,100
35,110.545,110.59,110.44,110.59,2400
36,110.47,110.515,110.4,110.4938,2144
37,110.42,110.42,110.42,110.42,300
38,110.39,110.42,110.39,110.42,791
39,110.455,110.455,110.4,110.4,2100
40,110.45,110.45,110.45,110.45,100
41,110.41,110.46,110.41,110.46,1465
42,110.44,110.45,110.42,110.44,700
44,110.35,110.42,110.35,110.42,4102
45,110.26,110.32,110.26,110.32,1060
46,110.26,110.29,110.26,110.2734,300
47,110.4,110.43,110.29,110.3,7005
48,110.4,110.41,110.39,110.39,900
49,110.41,110.43,110.38,110.38,1578
50,110.39,110.39,110.39,110.39,800
51,110.4,110.4,110.38,110.4,500
52,110.38,110.43,110.38,110.4,2885
54,110.34,110.345,110.29,110.345,1300
55,110.37,110.39,110.365,110.365,300
56,110.35,110.38,110.35,110.37,1698
57,110.34,110.34,110.33,110.34,300
58,110.33,110.33,110.33,110.33,300
59,110.27,110.27,110.235,110.235,200
60,110.31,110.31,110.22,110.245,1000
61,110.32,110.35,110.32,110.34,818
62,110.35,110.37,110.35,110.37,451
64,110.34,110.36,110.29,110.3,2296
65,110.31,110.36,110.31,110.36,800
66,110.39,110.39,110.34,110.34,1200
67,110.39,110.39,110.39,110.39,400
68,110.42,110.42,110.42,110.42,200
69,110.39,110.425,110.39,110.42,1374
70,110.42,110.42,110.4,110.41,400
71,110.5,110.51,110.5,110.51,400
72,110.53,110.53,110.53,110.53,100
73,110.555,110.58,110.555,110.58,200
74,110.58,110.6,110.555,110.555,900
75,110.635,110.65,110.635,110.65,200
76,110.55,110.64,110.55,110.64,2110
77,110.46,110.55,110.46,110.55,900
78,110.45,110.505,110.45,110.505,800
79,110.47,110.49,110.46,110.48,1000
80,110.45,110.47,110.43,110.47,1200
81,110.46,110.49,110.43,110.47,1200
82,110.45,110.5,110.45,110.48,1270
83,110.44,110.44,110.44,110.44,100
84,110.42,110.49,110.42,110.49,2035
85,110.42,110.42,110.42,110.42,100
86,110.42,110.42,110.4,110.41,300
87,110.41,110.44,110.41,110.435,1862
88,110.4,110.4,110.39,110.4,500
89,110.35,110.38,110.35,110.38,500
90,110.3705,110.4,110.36,110.36,1385
91,110.395,110.395,110.395,110.395,100
92,110.46,110.52,110.42,110.42,3347
93,110.42,110.43,110.42,110.43,600
94,110.45,110.45,110.43,110.43,1900
95,110.47,110.47,110.44,110.45,300
97,110.48,110.48,110.43,110.43,800
98,110.56,110.56,110.47,110.47,7406
99,110.55,110.55,110.5373,110.5373,803
100,110.55,110.5568,110.54,110.5568,1733
101,110.58,110.58,110.55,110.55,831
103,110.58,110.58,110.58,110.58,126
104,110.61,110.61,110.61,110.61,200
105,110.67,110.67,110.66,110.67,600
107,110.655,110.67,110.65,110.67,2643
108,110.7,110.7,110.67,110.69,1686
109,110.68,110.685,110.68,110.685,200
110,110.6877,110.7,110.6877,110.7,250
111,110.73,110.73,110.7,110.71,1562
113,110.66,110.7,110.66,110.7,800
114,110.695,110.7,110.64,110.64,400
115,110.64,110.69,110.64,110.69,800
116,110.66,110.66,110.66,110.66,305
117,110.66,110.7,110.66,110.68,700
118,110.66,110.67,110.66,110.67,200
119,110.615,110.63,110.615,110.63,903
120,110.595,110.61,110.56,110.58,500
122,110.58,110.58,110.58,110.58,300
124,110.6,110.6,110.57,110.58,854
125,110.67,110.67,110.615,110.62,600
126,110.63,110.68,110.63,110.68,1000
127,110.64,110.64,110.64,110.64,100
128,110.61,110.64,110.61,110.64,700
130,110.61,110.64,110.57,110.58,500
131,110.68,110.69,110.64,110.64,1300
132,110.64,110.67,110.64,110.67,200
133,110.63,110.63,110.63,110.63,100
134,110.69,110.69,110.63,110.63,900
135,110.69,110.69,110.69,110.69,100
138,110.6,110.65,110.6,110.65,1307
139,110.6,110.6,110.58,110.58,300
141,110.605,110.63,110.6,110.61,1700
142,110.59,110.59,110.59,110.59,527
143,110.5901,110.5901,110.5901,110.5901,487
144,110.65,110.65,110.6124,110.6124,1456
145,110.62,110.62,110.62,110.62,100
147,110.51,110.64,110.51,110.64,3830
148,110.52,110.58,110.51,110.51,4300
149,110.46,110.52,110.45,110.52,1000
150,110.49,110.52,110.49,110.51,600
152,110.47,110.5,110.47,110.5,400
155,110.43,110.43,110.39,110.42,1902
156,110.46,110.46,110.46,110.46,100
158,110.48,110.48,110.48,110.48,100
160,110.51,110.55,110.51,110.51,816
161,110.48,110.48,110.48,110.48,100
162,110.47,110.5,110.47,110.5,300
164,110.555,110.555,110.52,110.52,900
165,110.55,110.57,110.55,110.57,200
166,110.6,110.6,110.57,110.59,633
167,110.61,110.61,110.6,110.6,1100
168,110.64,110.64,110.6,110.63,796
169,110.6101,110.63,110.6101,110.63,731
171,110.61,110.61,110.61,110.61,200
172,110.6,110.61,110.6,110.61,231
174,110.6003,110.6003,110.6003,110.6003,226
175,110.615,110.615,110.61,110.61,400
176,110.65,110.65,110.615,110.62,600
178,110.67,110.67,110.65,110.65,503
179,110.65,110.65,110.65,110.65,100
180,110.66,110.67,110.66,110.67,200
181,110.65,110.66,110.65,110.66,630
182,110.67,110.67,110.67,110.67,100
183,110.65,110.65,110.65,110.65,100
184,110.64,110.64,110.64,110.64,100
185,110.655,110.66,110.65,110.65,400
186,110.65,110.67,110.65,110.67,762
187,110.6301,110.64,110.63,110.64,1090
188,110.65,110.65,110.63,110.63,400
189,110.65,110.65,110.62,110.62,200
192,110.659,110.659,110.62,110.62,356
193,110.65,110.65,110.65,110.65,200
194,110.64,110.645,110.64,110.645,400
195,110.64,110.64,110.64,110.64,200
198,110.59,110.65,110.59,110.64,2012
200,110.55,110.5696,110.55,110.5696,494
201,110.54,110.55,110.54,110.55,415
202,110.59,110.59,110.55,110.57,1547
204,110.5501,110.58,110.5501,110.58,600
205,110.57,110.59,110.57,110.57,400
206,110.585,110.585,110.585,110.585,100
207,110.56,110.58,110.56,110.58,803
208,110.58,110.58,110.56,110.56,725
209,110.56,110.59,110.56,110.56,700
211,110.56,110.56,110.55,110.55,200
212,110.56,110.57,110.56,110.57,669
213,110.58,110.58,110.58,110.58,100
214,110.57,110.61,110.57,110.6,900
215,110.51,110.58,110.51,110.58,1300
216,110.51,110.51,110.51,110.51,100
217,110.51,110.53,110.51,110.52,1200
219,110.54,110.54,110.54,110.54,100
220,110.52,110.55,110.52,110.53,400
222,110.54,110.57,110.54,110.55,600
223,110.61,110.61,110.58,110.58,400
224,110.56,110.58,110.56,110.58,967
225,110.575,110.58,110.575,110.58,209
226,110.58,110.59,110.58,110.58,500
227,110.6,110.62,110.58,110.61,2200
228,110.58,110.58,110.57,110.575,425
229,110.55,110.59,110.55,110.59,838
230,110.55,110.58,110.55,110.57,1100
231,110.555,110.555,110.555,110.555,100
232,110.59,110.59,110.59,110.59,200
233,110.62,110.62,110.59,110.6,800
234,110.59,110.6,110.59,110.6,210
235,110.6,110.61,110.5935,110.5935,831
236,110.61,110.62,110.6,110.6,965
237,110.59,110.6,110.57,110.6,1200
239,110.6,110.61,110.6,110.61,600
240,110.58,110.58,110.58,110.58,100
241,110.6,110.6,110.6,110.6,100
242,110.59,110.61,110.59,110.61,1244
243,110.6,110.6,110.57,110.59,1200
244,110.59,110.59,110.59,110.59,100
245,110.64,110.66,110.61,110.61,2200
246,110.61,110.65,110.61,110.64,2602
248,110.6,110.6,110.6,110.6,100
249,110.61,110.6104,110.61,110.61,350
250,110.68,110.71,110.62,110.62,1300
251,110.71,110.71,110.71,110.71,100
252,110.73,110.76,110.71,110.71,414
253,110.68,110.71,110.68,110.71,1400
254,110.62,110.67,110.62,110.67,600
255,110.635,110.65,110.635,110.635,700
256,110.7,110.7165,110.66,110.66,723
257,110.72,110.72,110.72,110.72,200
258,110.71,110.71,110.69,110.69,901
259,110.69,110.71,110.69,110.71,400
261,110.6734,110.6734,110.6734,110.6734,102
262,110.69,110.7,110.68,110.7,905
263,110.68,110.68,110.68,110.68,200
264,110.7,110.7,110.68,110.68,800
265,110.69,110.69,110.69,110.69,501
266,110.71,110.71,110.68,110.68,2637
267,110.74,110.74,110.72,110.72,2300
268,110.76,110.76,110.73,110.74,2500
270,110.73,110.745,110.73,110.745,1400
271,110.78,110.78,110.73,110.74,1631
272,110.75,110.79,110.75,110.7811,1643
273,110.74,110.74,110.74,110.74,400
274,110.73,110.73,110.73,110.73,200
275,110.71,110.72,110.71,110.72,700
276,110.77,110.77,110.72,110.72,700
277,110.73,110.78,110.73,110.77,1656
278,110.7095,110.7193,110.7,110.7193,922
279,110.61,110.69,110.61,110.69,1300
280,110.66,110.66,110.62,110.62,800
281,110.66,110.66,110.66,110.66,100
282,110.64,110.64,110.61,110.61,200
283,110.66,110.68,110.625,110.625,1081
284,110.66,110.66,110.66,110.66,300
285,110.66,110.68,110.66,110.68,300
286,110.69,110.69,110.69,110.69,100
287,110.7,110.7,110.7,110.7,822
290,110.69,110.7,110.69,110.7,600
291,110.65,110.69,110.65,110.69,700
292,110.68,110.68,110.6543,110.6543,1230
293,110.68,110.68,110.68,110.68,123
294,110.73,110.73,110.7,110.71,600
295,110.75,110.75,110.73,110.74,601
296,110.77,110.79,110.73,110.735,1873
297,110.76,110.76,110.76,110.76,300
298,110.75,110.76,110.75,110.76,700
299,110.76,110.76,110.76,110.76,400
300,110.75,110.76,110.745,110.755,1300
301,110.7,110.74,110.7,110.74,589
302,110.715,110.715,110.715,110.715,100
303,110.71,110.71,110.71,110.71,200
304,110.6501,110.71,110.6501,110.71,1982
305,110.665,110.68,110.665,110.68,268
306,110.7,110.7,110.66,110.66,1800
307,110.64,110.67,110.64,110.67,400
308,110.59,110.61,110.59,110.61,400
309,110.55,110.59,110.55,110.59,400
310,110.5832,110.6,110.57,110.57,11232
311,110.57,110.58,110.57,110.58,200
312,110.55,110.55,110.55,110.55,100
313,110.58,110.59,110.53,110.53,2000
314,110.56,110.58,110.56,110.58,743
315,110.55,110.57,110.54,110.57,300
317,110.58,110.62,110.575,110.59,1750
319,110.475,110.59,110.475,110.59,2771
320,110.46,110.46,110.4128,110.4534,738
321,110.445,110.445,110.445,110.445,100
322,110.47,110.47,110.46,110.46,400
323,110.47,110.52,110.45,110.47,1600
324,110.5,110.5,110.5,110.5,300
325,110.51,110.56,110.51,110.56,806
326,110.53,110.53,110.49,110.49,500
327,110.52,110.53,110.52,110.53,713
328,110.518,110.53,110.518,110.53,244
329,110.51,110.5251,110.51,110.5251,300
330,110.54,110.54,110.53,110.54,400
331,110.58,110.58,110.54,110.55,1973
332,110.585,110.585,110.57,110.57,209
333,110.61,110.61,110.59,110.59,400
334,110.59,110.61,110.57,110.61,2332
335,110.53,110.58,110.53,110.58,3220
336,110.56,110.56,110.56,110.56,600
337,110.58,110.59,110.565,110.58,400
338,110.605,110.62,110.59,110.6,1559
339,110.65,110.65,110.61,110.62,400
340,110.67,110.67,110.67,110.67,100
342,110.68,110.68,110.67,110.67,300
343,110.7,110.7,110.675,110.69,2132
344,110.69,110.69,110.68,110.68,1726
345,110.72,110.72,110.69,110.7,1400
346,110.74,110.74,110.72,110.72,300
347,110.75,110.76,110.74,110.74,500
348,110.74,110.75,110.715,110.74,4299
349,110.75,110.76,110.75,110.75,1363
350,110.74,110.7584,110.74,110.7584,1163
351,110.76,110.76,110.76,110.76,200
352,110.73,110.773,110.72,110.77,3200
353,110.7174,110.725,110.7174,110.725,200
354,110.7,110.75,110.7,110.7143,1518
355,110.71,110.71,110.69,110.69,700
356,110.73,110.73,110.69,110.71,600
357,110.78,110.78,110.75,110.75,1000
358,110.8,110.8,110.78,110.78,905
359,110.8,110.8,110.8,110.8,300
360,110.76,110.8,110.76,110.8,3387
361,110.77,110.77,110.75,110.75,1482
362,110.73,110.76,110.73,110.7568,2030
364,110.725,110.74,110.72,110.72,1120
365,110.69,110.72,110.68,110.72,2600
366,110.655,110.69,110.655,110.69,1100
367,110.65,110.65,110.65,110.65,100
368,110.68,110.7,110.665,110.67,3510
369,110.68,110.68,110.68,110.68,400
370,110.71,110.715,110.69,110.69,4485
371,110.69,110.71,110.69,110.71,1281
372,110.71,110.71,110.7,110.7,1464
373,110.77,110.77,110.72,110.72,2002
374,110.77,110.77,110.76,110.76,2748
375,110.78,110.78,110.76,110.77,800
376,110.75,110.78,110.73,110.78,6151
377,110.745,110.75,110.74,110.75,900
378,110.78,110.78,110.74,110.74,3204
379,110.77,110.785,110.76,110.78,4219
380,110.75,110.75,110.74,110.74,500
381,110.73,110.75,110.73,110.74,2308
382,110.72,110.73,110.715,110.73,5605
383,110.69,110.725,110.685,110.725,4400
384,110.7,110.7,110.67,110.7,2990
385,110.7,110.71,110.69,110.7,3252
386,110.7,110.71,110.685,110.7,4447
387,110.705,110.71,110.69,110.695,3455
388,110.71,110.73,110.68,110.71,8505
389,110.75,110.76,110.705,110.71,5151
390,110.69,110.76,110.68,110.745,16433
