EOG,EOG Resources,Energy,3,Oil & Gas Exploration & Production,54528776881,3175226
a1501594200,94.91,94.91,94.91,94.91,22329
1,94.99,95,94.8,94.855,21498
2,94.93,94.97,94.89,94.9401,8886
3,94.89,94.95,94.84,94.935,9560
4,94.78,94.9,94.75,94.88,4655
5,94.78,94.84,94.68,94.8158,3500
6,94.68,94.8199,94.67,94.77,4001
7,94.75,94.77,94.6762,94.73,12322
8,94.77,94.81,94.68,94.76,5006
9,94.89,94.92,94.73,94.81,6300
10,94.89,94.9,94.73,94.9,5000
11,94.885,94.93,94.8,94.92,6456
12,94.89,94.89,94.77,94.885,5162
13,94.66,94.82,94.61,94.81,4457
14,94.75,94.755,94.7,94.7,1100
15,94.685,94.735,94.63,94.735,7546
16,94.61,94.75,94.6,94.71,5799
17,94.81,94.81,94.59,94.66,9980
18,94.715,94.82,94.71,94.81,5160
19,94.72,94.7413,94.68,94.7,2366
20,94.7,94.71,94.61,94.71,9470
21,94.73,94.78,94.68,94.7,8475
22,94.78,94.84,94.725,94.74,8700
23,94.93,94.94,94.78,94.8,6974
24,94.9,94.99,94.9,94.94,5100
25,94.805,94.94,94.805,94.92,10199
26,94.65,94.77,94.65,94.77,2400
27,94.61,94.67,94.6,94.63,4400
28,94.55,94.6,94.55,94.5961,6000
29,94.41,94.56,94.41,94.55,7063
30,94.5725,94.5725,94.39,94.445,5094
31,94.63,94.67,94.585,94.6,5121
32,94.71,94.72,94.63,94.635,14100
33,94.73,94.73,94.66,94.68,5005
34,94.69,94.7,94.6,94.7,5400
35,94.74,94.79,94.67,94.69,3900
36,94.84,94.87,94.76,94.76,3000
37,94.85,94.86,94.82,94.83,4785
38,94.77,94.89,94.767,94.84,4305
39,94.7,94.76,94.7,94.76,1550
40,94.76,94.81,94.72,94.72,3494
41,94.82,94.82,94.76,94.77,2500
42,94.9063,94.9063,94.85,94.85,1222
43,94.9,94.94,94.89,94.93,3500
44,94.82,94.89,94.82,94.89,4445
45,94.8,94.82,94.78,94.82,3994
46,94.79,94.8,94.75,94.781,9490
47,94.71,94.78,94.71,94.78,2623
48,94.75,94.765,94.74,94.74,2815
49,94.81,94.84,94.75,94.76,4300
50,94.82,94.835,94.79,94.81,2359
51,94.905,94.93,94.81,94.83,10700
52,95.09,95.09,94.93,94.93,2264
53,95.08,95.1,95.05,95.09,11550
54,95.22,95.22,95.08,95.08,7100
55,95.27,95.28,95.25,95.25,1100
56,95.22,95.36,95.22,95.3,12705
57,95.22,95.23,95.19,95.21,2150
58,95.24,95.26,95.19,95.19,2878
59,95.39,95.39,95.26,95.27,4201
60,95.39,95.39,95.32,95.35,4062
61,95.51,95.53,95.41,95.42,6522
62,95.51,95.58,95.5,95.51,5702
63,95.51,95.57,95.49,95.51,8371
64,95.51,95.53,95.49,95.5299,9128
65,95.45,95.5,95.45,95.5,4440
66,95.49,95.49,95.45,95.49,1000
67,95.52,95.55,95.47,95.485,4275
68,95.46,95.5,95.46,95.5,3600
69,95.49,95.49,95.46,95.46,799
70,95.35,95.47,95.35,95.45,3849
71,95.35,95.355,95.349,95.35,900
72,95.44,95.44,95.34,95.355,5650
73,95.44,95.44,95.39,95.44,3218
74,95.5,95.5,95.46,95.46,1400
75,95.51,95.54,95.5,95.52,5840
76,95.44,95.53,95.44,95.5,4724
77,95.425,95.45,95.41,95.43,2458
78,95.38,95.44,95.38,95.41,3150
79,95.4,95.4,95.35,95.37,2200
80,95.48,95.48,95.35,95.36,14624
81,95.48,95.49,95.45,95.47,1821
82,95.47,95.53,95.46,95.49,6588
83,95.54,95.54,95.46,95.48,2836
84,95.53,95.56,95.5,95.52,6715
85,95.49,95.53,95.49,95.51,5100
86,95.49,95.52,95.49,95.51,1231
87,95.53,95.53,95.48,95.52,2720
88,95.51,95.57,95.48,95.48,7249
89,95.49,95.51,95.47,95.5,3300
90,95.49,95.54,95.49,95.52,3400
91,95.52,95.52,95.4968,95.5,1598
92,95.51,95.57,95.49,95.51,6600
93,95.48,95.52,95.48,95.5,2700
94,95.53,95.54,95.44,95.47,4909
95,95.565,95.58,95.49,95.52,7673
96,95.49,95.57,95.49,95.55,9406
97,95.41,95.47,95.38,95.47,3500
98,95.38,95.39,95.35,95.39,2500
99,95.33,95.38,95.33,95.38,2000
100,95.24,95.34,95.22,95.32,5750
101,95.12,95.25,95.02,95.23,7787
102,95.15,95.1981,95.135,95.135,2731
103,95.16,95.19,95.15,95.15,3600
104,95.16,95.2,95.16,95.181,2600
105,95.04,95.16,95.04,95.16,4675
106,94.9,95.06,94.9,95.04,2812
107,94.86,94.89,94.75,94.87,8439
108,94.84,94.87,94.82,94.87,1700
109,94.86,94.86,94.78,94.79,5154
110,94.845,94.87,94.81,94.82,3031
111,94.73,94.83,94.73,94.83,2954
112,94.69,94.75,94.63,94.73,6069
113,94.68,94.76,94.68,94.72,5545
114,94.6,94.68,94.6,94.68,6500
115,94.6,94.63,94.58,94.58,4250
116,94.72,94.73,94.58,94.58,7499
117,94.44,94.72,94.44,94.72,10742
118,94.58,94.63,94.44,94.47,5926
119,94.6,94.62,94.53,94.55,16277
120,94.59,94.64,94.57,94.59,5700
121,94.59,94.65,94.59,94.615,13741
122,94.58,94.62,94.56,94.6,7525
123,94.59,94.65,94.571,94.58,8626
124,94.55,94.595,94.51,94.58,4667
125,94.48,94.54,94.465,94.53,5650
126,94.445,94.47,94.38,94.47,4200
127,94.57,94.6,94.47,94.47,5997
128,94.515,94.59,94.5125,94.59,16800
129,94.555,94.6,94.515,94.53,5762
130,94.54,94.58,94.52,94.555,8581
131,94.43,94.55,94.41,94.53,14431
132,94.5,94.5,94.41,94.41,3044
133,94.56,94.56,94.46,94.46,3300
134,94.445,94.58,94.445,94.5619,12208
135,94.42,94.48,94.42,94.47,8650
136,94.43,94.46,94.41,94.42,6290
137,94.515,94.54,94.44,94.445,5035
138,94.5,94.54,94.49,94.54,2700
139,94.53,94.55,94.505,94.53,4450
140,94.57,94.59,94.53,94.55,14086
141,94.59,94.64,94.56,94.57,7500
142,94.63,94.63,94.56,94.595,13469
143,94.74,94.74,94.63,94.63,7888
144,94.8,94.8,94.735,94.76,6400
145,94.8,94.82,94.79,94.79,6636
146,94.89,94.89,94.8032,94.8032,4364
147,94.86,94.88,94.84,94.84,3001
148,94.93,94.96,94.85,94.86,10068
149,94.93,94.96,94.93,94.96,2932
150,94.7825,94.92,94.7825,94.92,6179
151,94.784,94.8,94.76,94.76,2180
152,94.7501,94.8,94.7501,94.8,6449
153,94.75,94.76,94.73,94.75,5110
154,94.77,94.8,94.75,94.76,3455
155,94.76,94.7704,94.75,94.76,5300
156,94.75,94.79,94.75,94.76,6600
157,94.72,94.76,94.71,94.75,5280
158,94.72,94.73,94.72,94.73,400
159,94.74,94.74,94.72,94.72,3500
160,94.73,94.75,94.72,94.72,3074
161,94.74,94.74,94.72,94.73,4600
162,94.76,94.76,94.72,94.73,2300
163,94.8,94.84,94.76,94.78,5300
164,94.81,94.85,94.79,94.79,3200
165,94.8,94.8,94.8,94.8,100
166,94.84,94.84,94.8,94.8,4489
167,94.87,94.87,94.82,94.84,2217
168,94.86,94.87,94.84,94.855,4470
169,94.87,94.87,94.84,94.865,4501
170,94.86,94.88,94.86,94.87,2600
171,94.79,94.88,94.77,94.85,12245
172,94.81,94.81,94.7904,94.8,2675
173,94.85,94.86,94.8,94.8,2535
174,94.68,94.86,94.67,94.85,19353
175,94.72,94.77,94.69,94.7,3865
176,94.675,94.71,94.66,94.7,2100
177,94.64,94.7,94.64,94.69,5946
178,94.58,94.6425,94.58,94.64,7150
179,94.51,94.6,94.51,94.59,9741
180,94.57,94.57,94.52,94.52,1600
181,94.54,94.57,94.49,94.5637,7031
182,94.5,94.52,94.5,94.52,3100
183,94.43,94.505,94.43,94.5,6155
184,94.47,94.48,94.44,94.44,1300
185,94.45,94.49,94.45,94.46,7904
186,94.45,94.47,94.43,94.44,2986
187,94.4,94.47,94.4,94.46,8690
188,94.425,94.43,94.4,94.41,9719
189,94.49,94.5,94.42,94.44,12118
190,94.45,94.48,94.44,94.461,5296
191,94.42,94.46,94.42,94.46,4024
192,94.46,94.49,94.43,94.44,15994
193,94.43,94.48,94.43,94.46,5875
194,94.4,94.42,94.39,94.42,6932
195,94.355,94.42,94.34,94.4,8193
196,94.35,94.36,94.29,94.34,21059
197,94.39,94.4,94.34,94.35,6077
198,94.345,94.42,94.33,94.39,20938
199,94.39,94.4,94.33,94.355,11939
200,94.39,94.4,94.36,94.39,2861
201,94.33,94.41,94.3,94.41,3528
202,94.39,94.39,94.32,94.325,5200
203,94.4,94.4,94.325,94.39,7700
204,94.3608,94.39,94.36,94.39,1600
205,94.365,94.41,94.33,94.37,8169
206,94.37,94.41,94.34,94.39,4302
207,94.36,94.36,94.31,94.355,4935
208,94.54,94.54,94.34,94.36,10225
209,94.565,94.57,94.51,94.51,1173
210,94.59,94.59,94.55,94.55,1192
211,94.6,94.62,94.6,94.62,620
212,94.61,94.61,94.5606,94.58,2175
213,94.57,94.63,94.56,94.63,2200
214,94.58,94.58,94.53,94.56,2705
215,94.59,94.59,94.535,94.57,1800
216,94.53,94.61,94.52,94.58,2410
217,94.55,94.61,94.53,94.53,2119
218,94.59,94.6,94.53,94.56,2900
219,94.5529,94.62,94.54,94.62,3150
220,94.57,94.57,94.54,94.55,2466
221,94.5499,94.55,94.52,94.55,2300
222,94.58,94.59,94.55,94.55,2500
223,94.56,94.6,94.56,94.59,2162
224,94.54,94.55,94.5,94.542,3661
225,94.59,94.59,94.54,94.56,1500
226,94.615,94.64,94.58,94.6,3900
227,94.6335,94.64,94.62,94.63,951
228,94.56,94.66,94.56,94.65,2502
229,94.59,94.63,94.55,94.55,1999
230,94.59,94.59,94.5301,94.57,2335
231,94.5779,94.61,94.5494,94.6,4052
232,94.58,94.58,94.55,94.58,463
233,94.59,94.63,94.58,94.58,2100
234,94.5801,94.61,94.5801,94.59,750
235,94.59,94.63,94.58,94.62,2700
236,94.575,94.59,94.53,94.59,7300
237,94.51,94.59,94.49,94.58,4970
238,94.48,94.52,94.48,94.52,2020
239,94.53,94.54,94.49,94.52,1492
240,94.48,94.53,94.46,94.52,5648
241,94.48,94.5,94.45,94.47,3602
242,94.44,94.47,94.41,94.47,1500
243,94.46,94.475,94.44,94.46,6344
244,94.4,94.455,94.4,94.455,4383
245,94.45,94.46,94.415,94.43,2100
246,94.44,94.44,94.38,94.44,2527
247,94.46,94.48,94.44,94.46,1200
248,94.46,94.48,94.44,94.46,2617
249,94.49,94.49,94.45,94.47,12350
250,94.47,94.51,94.47,94.49,6362
251,94.5,94.5,94.46,94.48,5274
252,94.5,94.51,94.47,94.47,4017
253,94.545,94.56,94.48,94.495,12666
254,94.52,94.57,94.52,94.57,3854
255,94.52,94.55,94.52,94.55,1171
256,94.52,94.56,94.51,94.56,2500
257,94.54,94.54,94.5029,94.5029,950
258,94.54,94.54,94.49,94.52,4155
259,94.55,94.59,94.55,94.55,900
260,94.59,94.59,94.56,94.59,1500
261,94.5805,94.62,94.56,94.56,3822
262,94.59,94.59,94.57,94.57,700
263,94.565,94.57,94.555,94.57,1200
264,94.56,94.57,94.54,94.57,1920
265,94.48,94.53,94.48,94.53,3000
266,94.43,94.5,94.43,94.5,4846
267,94.4233,94.44,94.4,94.435,2115
268,94.41,94.43,94.39,94.43,2000
269,94.4,94.41,94.38,94.41,1900
270,94.4025,94.41,94.37,94.4,9848
271,94.38,94.41,94.38,94.38,1900
272,94.39,94.42,94.38,94.38,4950
273,94.44,94.46,94.39,94.41,2861
274,94.4606,94.47,94.44,94.46,4931
275,94.46,94.5025,94.455,94.455,4800
276,94.44,94.49,94.44,94.465,3619
277,94.44,94.49,94.43,94.45,5750
278,94.39,94.45,94.39,94.45,2876
279,94.38,94.4,94.37,94.4,3592
280,94.4517,94.47,94.38,94.38,3865
281,94.475,94.475,94.45,94.455,2710
282,94.42,94.52,94.41,94.49,11506
283,94.375,94.43,94.37,94.43,5723
284,94.39,94.39,94.34,94.36,3589
285,94.37,94.4,94.35,94.4,1403
286,94.45,94.45,94.37,94.37,10500
287,94.45,94.45,94.422,94.422,400
288,94.44,94.47,94.42,94.4201,3531
289,94.44,94.46,94.43,94.44,10700
290,94.42,94.47,94.42,94.45,7137
291,94.42,94.445,94.4,94.44,13223
292,94.4,94.459,94.4,94.42,5882
293,94.39,94.44,94.38,94.44,3700
294,94.42,94.42,94.38,94.41,3300
295,94.45,94.45,94.38,94.39,9578
296,94.51,94.53,94.47,94.47,6325
297,94.5125,94.54,94.5,94.51,10708
298,94.465,94.515,94.45,94.515,9209
299,94.45,94.48,94.43,94.45,9000
300,94.44,94.45,94.41,94.45,7356
301,94.4275,94.46,94.41,94.445,9223
302,94.41,94.44,94.41,94.43,4631
303,94.45,94.47,94.42,94.42,16904
304,94.52,94.52,94.45,94.45,4500
305,94.5,94.52,94.48,94.5,3529
306,94.45,94.485,94.45,94.47,2000
307,94.43,94.45,94.43,94.44,2612
308,94.42,94.43,94.41,94.43,3958
309,94.43,94.43,94.4,94.41,6910
310,94.42,94.43,94.42,94.42,5500
311,94.4,94.4299,94.4,94.42,3861
312,94.39,94.41,94.39,94.405,4083
313,94.385,94.39,94.37,94.39,4028
314,94.44,94.44,94.4,94.4,9961
315,94.51,94.52,94.46,94.46,4310
316,94.57,94.57,94.51,94.52,13731
317,94.62,94.62,94.57,94.57,4437
318,94.7,94.7,94.63,94.63,7272
319,94.68,94.7,94.67,94.7,4200
320,94.7,94.7,94.66,94.68,19883
321,94.635,94.71,94.62,94.7,6200
322,94.57,94.64,94.57,94.64,2839
323,94.57,94.585,94.56,94.585,3330
324,94.53,94.58,94.52,94.57,8383
325,94.51,94.55,94.5,94.52,11911
326,94.515,94.52,94.505,94.52,5578
327,94.515,94.52,94.49,94.52,17677
328,94.485,94.52,94.44,94.5125,12456
329,94.48,94.49,94.45,94.48,8664
330,94.4863,94.4863,94.47,94.48,1043
331,94.47,94.475,94.44,94.475,7248
332,94.48,94.49,94.44,94.46,11489
333,94.57,94.57,94.48,94.48,7320
334,94.55,94.57,94.54,94.56,8905
335,94.57,94.58,94.56,94.56,5226
336,94.58,94.6,94.56,94.57,3000
337,94.53,94.59,94.52,94.58,5395
338,94.545,94.55,94.52,94.525,8474
339,94.57,94.59,94.555,94.56,4901
340,94.57,94.58,94.56,94.58,2100
341,94.58,94.58,94.57,94.575,3100
342,94.5601,94.58,94.55,94.58,15270
343,94.57,94.58,94.56,94.58,5098
344,94.56,94.57,94.555,94.56,3193
345,94.56,94.57,94.55,94.55,14320
346,94.53,94.57,94.52,94.56,9874
347,94.54,94.54,94.52,94.53,7986
348,94.535,94.55,94.53,94.54,12177
349,94.51,94.5325,94.48,94.53,6950
350,94.49,94.5,94.48,94.4901,4138
351,94.49,94.5,94.49,94.49,8421
352,94.49,94.5,94.48,94.48,7838
353,94.48,94.5,94.47,94.49,6400
354,94.48,94.49,94.46,94.47,15528
355,94.545,94.55,94.47,94.48,24840
356,94.54,94.56,94.53,94.55,4590
357,94.54,94.55,94.53,94.55,2500
358,94.54,94.55,94.53,94.55,7267
359,94.52,94.55,94.52,94.55,17331
360,94.52,94.53,94.52,94.52,5477
361,94.49,94.52,94.49,94.52,16294
362,94.45,94.5,94.435,94.495,32074
363,94.45,94.49,94.44,94.46,14871
364,94.47,94.47,94.43,94.45,9755
365,94.48,94.48,94.47,94.47,8567
366,94.48,94.48,94.46,94.47,13480
367,94.55,94.55,94.4645,94.47,13819
368,94.59,94.59,94.56,94.5699,11523
369,94.59,94.6,94.5732,94.59,10067
370,94.6,94.6,94.58,94.59,3942
371,94.6,94.6,94.59,94.6,9970
372,94.6,94.6,94.6,94.6,3398
373,94.51,94.6,94.49,94.595,24519
374,94.52,94.53,94.5,94.52,13473
375,94.48,94.51,94.4775,94.5,19213
376,94.38,94.48,94.375,94.48,24819
377,94.32,94.3999,94.32,94.38,20955
378,94.31,94.33,94.3,94.32,40452
379,94.33,94.34,94.31,94.32,28725
380,94.15,94.33,94.15,94.33,20453
381,94.29,94.29,94.13,94.15,42146
382,94.18,94.29,94.16,94.27,15193
383,94.06,94.19,94.05,94.18,41701
384,94.17,94.21,94.07,94.09,27482
385,94.2,94.27,94.17,94.17,27386
386,94.28,94.28,94.19,94.19,26761
387,94.37,94.38,94.27,94.28,17983
388,94.36,94.39,94.34,94.385,25043
389,94.23,94.34,94.18,94.34,33338
390,94.38,94.44,94.18,94.24,22364
