PPG,PPG Industries,Materials,8,Specialty Chemicals,26958592986,1307356
a1501594260,105.48,105.5,105.18,105.28,22134
1,105.62,105.62,105.52,105.53,1600
2,105.55,105.58,105.47,105.58,1200
3,105.39,105.5,105.39,105.48,400
4,105.43,105.51,105.43,105.51,200
5,105.41,105.5,105.38,105.43,1700
6,105.35,105.4,105.33,105.39,2300
7,105.155,105.34,105.155,105.33,1359
8,105.14,105.18,105.14,105.18,2020
9,105.085,105.13,105.02,105.13,3300
10,105.155,105.19,105.11,105.13,4009
11,105.34,105.34,105.19,105.19,1085
12,105.27,105.32,105.23,105.32,1620
13,105.28,105.28,105.28,105.28,700
14,105.38,105.46,105.38,105.41,900
15,105.41,105.4528,105.38,105.395,2000
16,105.34,105.39,105.305,105.39,1900
18,105.25,105.34,105.25,105.32,2900
19,105.142,105.3,105.142,105.27,2900
20,105.19,105.2,105.17,105.19,1650
21,105.12,105.155,105.11,105.13,1400
22,105.115,105.13,105.1,105.12,2045
23,105.145,105.145,105.07,105.08,1500
24,105.14,105.14,105.13,105.14,400
25,105.14,105.15,105.11,105.12,2500
26,105.1456,105.1456,105.12,105.13,400
27,105.14,105.14,105.1,105.13,1000
28,105.12,105.12,105.111,105.111,300
29,105.15,105.15,105.15,105.15,1100
30,105.17,105.18,105.16,105.165,3388
31,105.11,105.17,105.105,105.17,1469
32,105.09,105.12,105.09,105.12,200
33,105.12,105.12,105.03,105.085,2830
34,105.14,105.16,105.13,105.13,2346
35,105.205,105.21,105.14,105.14,3625
36,105.24,105.27,105.235,105.235,1625
37,105.29,105.29,105.27,105.27,446
38,105.25,105.305,105.23,105.305,3967
39,105.245,105.2483,105.245,105.245,1450
40,105.18,105.26,105.18,105.26,3700
41,105.21,105.22,105.2,105.2,1893
42,105.24,105.24,105.22,105.22,1505
43,105.21,105.23,105.21,105.23,400
44,105.17,105.21,105.17,105.21,900
45,105.15,105.19,105.15,105.19,2553
46,105.19,105.2,105.16,105.16,600
47,105.24,105.265,105.23,105.23,1800
48,105.24,105.25,105.22,105.24,4842
49,105.14,105.21,105.14,105.21,900
50,105.15,105.15,105.15,105.15,100
51,105.19,105.19,105.15,105.15,2264
52,105.22,105.24,105.1988,105.1988,950
53,105.2,105.22,105.11,105.22,5380
54,105.13,105.24,105.13,105.19,1100
56,105.1201,105.17,105.1201,105.145,1847
57,105.12,105.14,105.11,105.14,800
58,105.13,105.14,105.1,105.13,2887
59,105.18,105.19,105.1601,105.19,1800
60,105.15,105.2,105.15,105.18,3257
61,105.14,105.15,105.12,105.12,600
62,105.145,105.15,105.13,105.15,2400
63,105.165,105.165,105.12,105.145,4555
64,105.215,105.215,105.17,105.17,1700
65,105.16,105.215,105.16,105.2,5611
66,105.13,105.18,105.13,105.16,3809
68,105.15,105.17,105.13,105.15,4700
69,105.13,105.17,105.13,105.15,2812
70,105.1,105.1317,105.08,105.1263,3410
71,105.14,105.14,105.1,105.1,2026
72,105.14,105.14,105.13,105.13,1000
73,105.09,105.12,105.09,105.12,2085
74,105.06,105.1,105.04,105.1,4324
75,105.01,105.06,105.01,105.06,3863
76,105,105.01,104.99,105.01,6188
77,104.99,105,104.94,105,6556
78,104.95,104.965,104.92,104.95,1894
79,105.08,105.08,104.95,104.95,5868
80,105.05,105.09,105.03,105.08,2700
81,104.995,105.05,104.995,105.04,1000
82,104.97,104.995,104.97,104.995,700
83,104.95,104.99,104.95,104.99,2600
84,105.015,105.015,104.95,104.96,3835
85,105.04,105.06,105.02,105.02,1780
86,104.99,105.05,104.99,105.03,2584
87,104.91,104.97,104.89,104.97,3800
88,104.93,104.95,104.92,104.92,1780
89,104.93,104.93,104.92,104.92,1800
90,104.91,104.955,104.91,104.92,1300
91,104.91,104.92,104.88,104.8901,2350
92,104.85,104.9,104.85,104.9,800
93,104.83,104.865,104.82,104.85,2200
94,104.84,104.86,104.81,104.84,5437
95,104.86,104.86,104.86,104.86,100
96,104.91,104.91,104.86,104.86,1700
97,104.89,104.9,104.89,104.9,1000
98,104.94,104.95,104.88,104.89,4900
99,105.07,105.08,104.945,104.945,1400
100,104.995,105.07,104.995,105.07,900
101,105.0052,105.0052,104.99,104.99,1704
102,104.99,105.01,104.99,105.0064,1265
103,104.995,105,104.995,105,600
104,104.995,105.02,104.995,105,600
105,104.93,104.99,104.93,104.99,2100
106,104.91,104.91,104.89,104.91,1500
107,104.91,104.96,104.9,104.91,9081
108,104.845,104.91,104.845,104.91,4150
109,104.66,104.85,104.66,104.84,5270
110,104.68,104.68,104.63,104.66,3900
111,104.75,104.75,104.68,104.68,1947
112,104.75,104.76,104.735,104.735,800
113,104.735,104.75,104.73,104.75,2600
114,104.78,104.78,104.78,104.78,400
115,104.75,104.79,104.75,104.78,1735
116,104.77,104.7725,104.71,104.765,2004
117,104.75,104.75,104.75,104.75,100
118,104.78,104.79,104.76,104.76,1873
119,104.83,104.845,104.79,104.79,2891
120,104.875,104.9,104.84,104.84,1400
121,104.94,104.94,104.905,104.905,600
122,104.95,104.95,104.93,104.94,1400
125,104.93,104.93,104.89,104.9,1800
127,104.94,104.96,104.92,104.92,600
128,104.91,104.935,104.91,104.93,1800
130,105.0429,105.06,104.91,104.91,1306
131,105.055,105.07,105.04,105.07,3470
132,105.07,105.08,105.045,105.045,800
133,105.09,105.09,105.09,105.09,500
134,105.06,105.11,105.06,105.09,2600
135,105,105.06,105,105.06,1629
136,105.005,105.005,105.005,105.005,150
137,105.025,105.03,105.015,105.02,1493
138,105.03,105.05,105.03,105.04,919
139,104.98,105.02,104.98,105.02,1300
140,104.98,105,104.97,104.99,1600
141,104.98,104.99,104.97,104.99,900
142,104.98,104.99,104.98,104.99,800
143,104.99,104.99,104.99,104.99,200
144,105,105.02,104.99,104.99,2001
145,105.02,105.02,105,105,1300
146,105.06,105.08,105.04,105.04,2328
147,105.08,105.08,105.06,105.07,1200
148,105.1,105.1,105.085,105.09,1300
149,105.135,105.14,105.1,105.11,1900
150,105.15,105.15,105.13,105.13,1900
151,105.18,105.18,105.18,105.18,100
153,105.19,105.19,105.17,105.18,2560
154,105.1958,105.21,105.1958,105.21,309
155,105.17,105.21,105.17,105.21,900
157,105.175,105.19,105.17,105.19,906
158,105.17,105.19,105.17,105.18,1669
159,105.21,105.21,105.17,105.17,1150
160,105.185,105.2,105.185,105.2,600
161,105.2,105.2,105.2,105.2,100
162,105.185,105.21,105.18,105.2,1900
163,105.2,105.2,105.2,105.2,100
164,105.1276,105.18,105.1276,105.18,2050
165,105.14,105.14,105.13,105.13,2900
166,105.13,105.14,105.13,105.14,800
167,105.19,105.19,105.14,105.14,2400
168,105.22,105.22,105.2,105.2,700
169,105.19,105.22,105.185,105.22,3500
170,105.19,105.21,105.19,105.19,3600
171,105.21,105.21,105.18,105.18,1200
172,105.15,105.2,105.15,105.2,2700
173,105.16,105.18,105.155,105.16,3500
174,105.15,105.15,105.1437,105.15,2400
175,105.14,105.16,105.14,105.15,2027
176,105.14,105.14,105.12,105.13,2232
177,105.1595,105.1595,105.12,105.12,1200
178,105.2,105.21,105.16,105.16,5250
179,105.19,105.19,105.19,105.19,600
181,105.2,105.2133,105.2,105.2133,900
182,105.2,105.218,105.2,105.218,837
183,105.16,105.19,105.16,105.19,1124
184,105.18,105.2,105.16,105.16,2747
185,105.2104,105.2104,105.19,105.19,750
187,105.22,105.22,105.22,105.22,300
188,105.2,105.222,105.2,105.222,850
190,105.23,105.23,105.23,105.23,700
191,105.29,105.29,105.24,105.24,1589
192,105.3,105.3,105.27,105.29,1648
193,105.27,105.27,105.27,105.27,760
195,105.3,105.3,105.27,105.27,400
196,105.26,105.29,105.26,105.29,900
197,105.26,105.26,105.26,105.26,100
198,105.26,105.26,105.255,105.26,1200
199,105.3,105.3,105.3,105.3,100
200,105.3,105.3,105.28,105.3,2147
201,105.31,105.31,105.31,105.31,246
202,105.32,105.33,105.32,105.32,9700
203,105.37,105.37,105.32,105.32,2537
205,105.35,105.36,105.35,105.36,1288
206,105.3293,105.34,105.32,105.34,1067
207,105.33,105.33,105.33,105.33,100
208,105.315,105.32,105.31,105.31,441
209,105.325,105.33,105.31,105.31,1169
210,105.27,105.325,105.27,105.325,6500
211,105.26,105.27,105.25,105.27,1305
212,105.26,105.26,105.2512,105.2512,1129
213,105.28,105.28,105.27,105.27,300
214,105.261,105.28,105.26,105.28,800
216,105.26,105.29,105.26,105.26,435
217,105.2996,105.2996,105.28,105.28,200
218,105.31,105.31,105.28,105.29,1200
219,105.3175,105.3175,105.3,105.31,500
220,105.31,105.31,105.31,105.31,200
221,105.325,105.325,105.31,105.31,700
222,105.28,105.32,105.28,105.32,1682
223,105.26,105.28,105.25,105.28,1500
225,105.31,105.31,105.27,105.27,3077
226,105.28,105.3,105.28,105.3,1800
227,105.26,105.29,105.26,105.28,1620
229,105.24,105.24,105.2168,105.2168,2689
230,105.28,105.28,105.27,105.27,500
231,105.28,105.28,105.28,105.28,400
232,105.25,105.26,105.24,105.2536,728
233,105.26,105.26,105.26,105.26,200
234,105.25,105.26,105.25,105.25,900
235,105.23,105.24,105.23,105.24,950
236,105.25,105.26,105.24,105.24,500
237,105.25,105.25,105.24,105.24,1000
238,105.23,105.2424,105.23,105.24,940
239,105.22,105.22,105.22,105.22,400
240,105.2,105.22,105.2,105.22,800
241,105.19,105.19,105.16,105.18,1500
242,105.19,105.2062,105.17,105.19,1919
243,105.23,105.23,105.19,105.2,700
244,105.22,105.23,105.22,105.23,801
245,105.19,105.21,105.19,105.21,366
246,105.2064,105.21,105.2064,105.21,467
247,105.16,105.2,105.16,105.2,700
249,105.19,105.19,105.17,105.17,1400
250,105.17,105.21,105.17,105.2,2386
251,105.15,105.15,105.15,105.15,100
252,105.19,105.21,105.19,105.19,901
253,105.19,105.22,105.19,105.21,708
255,105.245,105.245,105.23,105.23,900
256,105.23,105.25,105.23,105.2446,2413
257,105.19,105.22,105.19,105.22,700
258,105.205,105.205,105.18,105.19,1300
259,105.205,105.21,105.205,105.21,400
260,105.19,105.19,105.17,105.17,600
261,105.19,105.1966,105.19,105.19,605
262,105.21,105.22,105.19,105.19,600
263,105.25,105.25,105.22,105.22,1332
264,105.24,105.26,105.24,105.26,2306
265,105.25,105.25,105.2444,105.25,907
266,105.265,105.265,105.26,105.26,1200
267,105.245,105.26,105.245,105.26,500
268,105.2388,105.25,105.2388,105.24,300
269,105.31,105.31,105.23,105.23,1650
270,105.29,105.31,105.29,105.31,2400
271,105.285,105.29,105.28,105.28,1890
272,105.27,105.28,105.25,105.28,5223
273,105.275,105.29,105.26,105.275,4200
274,105.2401,105.28,105.2401,105.28,1900
275,105.2472,105.275,105.24,105.27,3110
276,105.23,105.2472,105.23,105.2472,808
277,105.18,105.22,105.18,105.22,1214
278,105.1684,105.2,105.1684,105.18,2599
279,105.1527,105.175,105.14,105.17,1992
280,105.18,105.19,105.16,105.16,2551
281,105.18,105.19,105.18,105.18,400
282,105.21,105.21,105.19,105.19,1500
283,105.27,105.27,105.21,105.21,1000
284,105.25,105.27,105.25,105.27,1374
285,105.27,105.27,105.24,105.24,2242
286,105.24,105.26,105.24,105.26,1125
287,105.225,105.235,105.22,105.235,800
288,105.24,105.25,105.22,105.22,4284
289,105.25,105.25,105.21,105.235,3520
290,105.205,105.255,105.19,105.24,2601
291,105.21,105.21,105.205,105.205,500
292,105.22,105.22,105.2,105.22,2609
293,105.24,105.25,105.22,105.22,2937
294,105.24,105.275,105.24,105.24,3356
295,105.21,105.265,105.21,105.26,1940
296,105.24,105.24,105.21,105.21,2600
297,105.24,105.26,105.24,105.24,3100
298,105.22,105.25,105.21,105.25,6098
299,105.25,105.27,105.215,105.22,6404
300,105.25,105.25,105.2301,105.25,1699
301,105.27,105.27,105.25,105.255,2560
302,105.28,105.28,105.27,105.27,2124
303,105.28,105.31,105.275,105.275,3154
304,105.26,105.27,105.23,105.27,3200
305,105.24,105.25,105.235,105.24,8400
306,105.26,105.27,105.24,105.24,2500
307,105.28,105.28,105.25,105.255,1450
308,105.27,105.3,105.27,105.29,1633
309,105.26,105.27,105.2556,105.27,750
310,105.28,105.28,105.2515,105.256,815
311,105.27,105.27,105.27,105.27,300
312,105.3,105.31,105.27,105.27,1900
313,105.28,105.31,105.26,105.3,3400
314,105.3,105.3,105.28,105.28,800
315,105.3,105.3,105.295,105.3,400
316,105.295,105.3,105.29,105.2929,1421
317,105.3,105.32,105.29,105.3,5952
318,105.29,105.31,105.29,105.31,2049
319,105.29,105.29,105.26,105.28,4559
320,105.3,105.3,105.3,105.3,800
321,105.3,105.3,105.3,105.3,300
322,105.305,105.305,105.305,105.305,100
323,105.3,105.31,105.3,105.305,500
324,105.3,105.31,105.26,105.3,2400
325,105.27,105.29,105.27,105.29,869
326,105.31,105.31,105.29,105.29,2439
327,105.32,105.325,105.31,105.31,500
328,105.305,105.33,105.29,105.33,2217
329,105.3075,105.31,105.3,105.3,1020
330,105.295,105.305,105.2868,105.305,1851
331,105.285,105.2999,105.285,105.29,1070
332,105.31,105.31,105.285,105.29,2975
333,105.28,105.32,105.28,105.31,2010
334,105.3,105.3,105.29,105.29,700
335,105.3,105.31,105.3,105.3,2679
336,105.31,105.31,105.3001,105.305,570
337,105.295,105.3,105.29,105.3,1456
338,105.29,105.31,105.29,105.3,7508
339,105.305,105.305,105.3,105.3,1000
340,105.29,105.305,105.29,105.305,1939
341,105.3,105.305,105.28,105.28,2500
342,105.36,105.43,105.3,105.3,26547
343,105.36,105.36,105.33,105.35,5199
344,105.36,105.38,105.36,105.365,7531
345,105.39,105.41,105.35,105.36,6929
346,105.38,105.4,105.375,105.395,1966
347,105.43,105.43,105.39,105.39,5400
348,105.415,105.43,105.41,105.43,2832
349,105.44,105.44,105.42,105.42,2700
350,105.44,105.44,105.43,105.44,800
351,105.44,105.44,105.42,105.43,1531
352,105.445,105.49,105.44,105.44,4384
353,105.45,105.45,105.44,105.45,900
354,105.45,105.45,105.445,105.45,2400
355,105.45,105.47,105.445,105.45,5942
356,105.44,105.46,105.44,105.45,2134
357,105.46,105.46,105.4478,105.45,1712
358,105.48,105.48,105.45,105.45,3606
359,105.49,105.49,105.47,105.47,3653
360,105.475,105.485,105.47,105.485,2949
361,105.49,105.505,105.48,105.48,4173
362,105.46,105.5,105.46,105.485,5300
363,105.47,105.48,105.46,105.46,3696
364,105.48,105.48,105.46,105.465,2200
365,105.4901,105.51,105.49,105.49,15168
366,105.48,105.51,105.48,105.5,4643
367,105.5,105.505,105.475,105.48,10403
368,105.51,105.51,105.5,105.5,3379
369,105.505,105.51,105.505,105.505,2374
370,105.505,105.51,105.475,105.51,14545
371,105.5,105.51,105.5,105.505,2479
372,105.48,105.51,105.48,105.505,16503
373,105.47,105.49,105.45,105.49,4717
374,105.51,105.51,105.47,105.47,14921
375,105.49,105.51,105.48,105.5,9450
376,105.47,105.495,105.46,105.495,3082
377,105.41,105.465,105.41,105.465,3300
378,105.4,105.41,105.37,105.41,4846
379,105.38,105.41,105.38,105.4,2770
380,105.39,105.39,105.365,105.365,4645
381,105.4,105.41,105.38,105.38,4146
382,105.405,105.41,105.399,105.4,3365
383,105.4,105.41,105.4,105.4,3651
384,105.4,105.42,105.4,105.4,5677
385,105.38,105.42,105.38,105.42,3300
386,105.37,105.38,105.37,105.38,4569
387,105.35,105.38,105.35,105.375,5354
388,105.355,105.36,105.35,105.355,2458
389,105.21,105.32,105.2,105.31,17789
