EOG,EOG Resources,Energy,3,Oil & Gas Exploration & Production,53068310300,3427755
a1500039000,92,92,91.98,91.98,20341
1,91.9313,91.96,91.75,91.9,20612
2,92.04,92.16,91.82,91.92,13502
3,92.21,92.21,92.04,92.1,4231
4,92.095,92.13,92.04,92.07,4559
5,92.07,92.095,91.965,92.095,3623
6,92.14,92.29,92,92.03,12987
7,92.08,92.145,92.08,92.1,1400
8,92.11,92.15,92.08,92.12,4424
9,92.115,92.165,92.08,92.08,5120
10,92.125,92.18,92.0575,92.09,5846
11,92.16,92.17,92.1,92.12,3563
12,92.175,92.24,92.13,92.14,5515
13,92.26,92.3,92.15,92.2,4085
14,92.21,92.34,92.21,92.24,3600
15,92.225,92.25,92.15,92.2,1810
16,92.3,92.35,92.195,92.25,3600
17,92.28,92.36,92.28,92.32,6200
18,92.17,92.305,92.17,92.28,1643
19,92.24,92.28,92.15,92.22,14875
20,92.16,92.27,92.16,92.18,800
21,92.26,92.26,92.13,92.13,2562
22,92.29,92.29,92.14,92.23,2650
23,92.17,92.29,92.16,92.29,2701
24,92.17,92.21,92.16,92.17,1600
25,92.06,92.16,92.06,92.11,1335
26,92.05,92.14,92.05,92.105,6491
27,91.98,92.01,91.97,92.01,1100
28,91.96,92.04,91.96,91.97,2000
29,91.975,92.02,91.975,91.98,1300
30,91.98,91.99,91.89,91.95,2047
31,91.7,91.99,91.665,91.99,10000
32,91.825,91.86,91.72,91.74,3261
33,91.8,91.88,91.79,91.82,4116
34,91.93,91.96,91.82,91.83,8224
35,91.83,91.93,91.83,91.91,1955
36,91.95,91.98,91.84,91.85,2751
37,92.02,92.0233,91.97,91.98,1916
38,91.9,92.03,91.9,91.98,1521
39,91.79,91.96,91.79,91.96,1493
40,91.83,91.83,91.78,91.81,1800
41,91.9,91.92,91.82,91.84,3190
42,92,92,91.92,91.92,1877
43,92,92.02,91.94,91.98,2356
44,91.96,91.99,91.96,91.99,1303
45,92,92,91.95,91.95,1142
46,92.07,92.11,92.02,92.02,3300
47,92.07,92.09,92,92.06,2308
48,92.09,92.09,92.03,92.06,800
49,91.98,92.1,91.95,92.1,1677
50,92.02,92.04,91.96,91.98,3310
51,92.12,92.14,92.07,92.07,3400
52,92.13,92.155,92.11,92.12,1745
53,92.18,92.18,92.13,92.155,2230
54,92.11,92.175,92.11,92.16,1134
55,92.19,92.208,92.17,92.17,1133
56,92.17,92.26,92.14,92.18,2200
57,92.22,92.22,92.15,92.17,2300
58,92.18,92.22,92.13,92.22,2200
59,92.15,92.15,92.08,92.13,1526
60,92.1,92.13,92.07,92.09,1600
61,92.08,92.1,92.08,92.1,424
62,92.185,92.21,92.08,92.08,4005
63,92.085,92.16,92.07,92.16,5200
64,92.17,92.18,92.05,92.05,2900
65,92.11,92.15,92.11,92.15,589
66,92.19,92.19,92.115,92.14,1500
67,92.18,92.23,92.18,92.19,3006
68,92.17,92.2,92.17,92.17,1042
69,92.13,92.15,92.07,92.14,2210
70,92.13,92.16,92.13,92.15,1601
71,92.22,92.23,92.14,92.14,3300
72,92.22,92.22,92.187,92.2,675
73,92.23,92.27,92.21,92.21,2800
74,92.19,92.24,92.18,92.24,2574
75,92.24,92.25,92.19,92.2096,2133
76,92.26,92.29,92.25,92.25,1545
77,92.15,92.22,92.13,92.22,1800
78,92.05,92.1409,92.05,92.1409,2350
79,92.1232,92.14,92.06,92.07,2834
80,92.14,92.15,92.12,92.13,1250
81,92.08,92.13,92.02,92.13,1700
82,92.11,92.11,92.07,92.07,1100
83,92.06,92.06,92.06,92.06,100
84,91.99,92.03,91.99,92.02,12500
85,91.98,92.02,91.97,92.02,4547
86,92.03,92.05,92,92.01,1450
87,91.92,92.01,91.91,92.01,5060
88,91.94,91.96,91.89,91.94,7200
89,91.91,91.92,91.87,91.92,2700
90,91.87,91.93,91.87,91.91,3414
91,91.82,91.87,91.79,91.85,7798
92,91.77,91.83,91.75,91.83,8899
93,91.74,91.84,91.74,91.81,20964
94,91.75,91.75,91.69,91.74,8199
95,91.74,91.74,91.72,91.731,1022
96,91.7664,91.77,91.7,91.72,3700
97,91.72,91.79,91.72,91.772,2252
98,91.64,91.71,91.64,91.7,4666
99,91.64,91.66,91.6052,91.64,3650
100,91.7,91.71,91.63,91.65,1600
101,91.71,91.74,91.7,91.71,2415
102,91.75,91.75,91.71,91.71,1600
103,91.72,91.78,91.67,91.74,2310
104,91.6,91.67,91.6,91.67,1350
105,91.64,91.66,91.62,91.6224,1030
106,91.69,91.79,91.67,91.67,4531
107,91.71,91.75,91.69,91.71,2400
108,91.77,91.77,91.68,91.71,1800
109,91.73,91.81,91.73,91.75,3225
110,91.71,91.76,91.71,91.73,1000
111,91.72,91.72,91.69,91.69,896
112,91.8,91.8,91.7,91.72,3518
113,91.83,91.83,91.79,91.79,1700
114,91.7509,91.84,91.7,91.82,6500
115,91.77,91.79,91.72,91.78,1100
116,91.82,91.82,91.71,91.77,2500
117,91.81,91.83,91.77,91.82,2300
118,91.75,91.8,91.75,91.78,1200
119,91.65,91.72,91.6,91.72,4447
120,91.65,91.66,91.59,91.64,3300
121,91.68,91.71,91.65,91.65,3007
122,91.68,91.72,91.68,91.72,704
123,91.7,91.745,91.69,91.69,5000
124,91.74,91.74,91.66,91.67,2950
125,91.68,91.72,91.68,91.72,500
126,91.7,91.74,91.7,91.7,600
127,91.69,91.69,91.69,91.69,225
128,91.74,91.76,91.69,91.69,2000
129,91.66,91.73,91.66,91.72,3396
130,91.69,91.7,91.66,91.69,1863
131,91.69,91.72,91.68,91.7,1300
132,91.76,91.77,91.69,91.72,4176
133,91.77,91.77,91.7,91.72,1600
134,91.78,91.78,91.78,91.78,372
135,91.74,91.81,91.73,91.78,1889
136,91.8,91.83,91.74,91.74,5718
137,91.85,91.85,91.79,91.8,1700
138,91.84,91.84,91.8,91.83,3900
139,91.82,91.83,91.78,91.82,3400
140,91.78,91.8,91.75,91.8,1213
141,91.71,91.77,91.71,91.75,2000
142,91.76,91.79,91.72,91.72,4000
143,91.78,91.78,91.74,91.74,3100
144,91.8,91.8,91.76,91.765,2400
145,91.77,91.83,91.76,91.8,7228
146,91.7704,91.81,91.76,91.8,3611
147,91.81,91.82,91.78,91.79,2349
148,91.76,91.81,91.76,91.79,2300
149,91.75,91.78,91.75,91.76,2359
150,91.85,91.85,91.72,91.75,4300
151,91.85,91.85,91.81,91.81,1400
152,91.78,91.85,91.78,91.84,2800
153,91.805,91.81,91.785,91.785,600
154,91.82,91.82,91.82,91.82,200
155,91.74,91.8,91.74,91.8,2608
156,91.835,91.85,91.755,91.77,3612
157,91.83,91.86,91.82,91.835,900
158,91.83,91.83,91.8,91.83,4656
159,91.84,91.85,91.78,91.815,3100
160,91.84,91.86,91.84,91.85,2100
161,91.77,91.83,91.77,91.83,1501
162,91.84,91.84,91.75,91.78,4731
163,91.79,91.85,91.79,91.85,1700
164,91.84,91.84,91.815,91.82,1950
165,91.87,91.87,91.83,91.85,1100
166,91.92,91.92,91.89,91.89,600
167,91.94,91.94,91.88,91.91,6266
168,91.95,91.95,91.935,91.94,1943
169,91.98,91.98,91.94,91.95,6747
170,91.98,92,91.96,91.985,6532
171,91.99,91.99,91.97,91.98,1500
172,91.97,91.98,91.96,91.98,2774
173,91.93,91.98,91.93,91.96,2900
174,91.93,91.96,91.92,91.94,1800
175,91.93,91.97,91.93,91.96,2700
176,91.95,91.96,91.93,91.933,3210
177,91.88,91.94,91.88,91.94,11900
178,91.895,91.91,91.89,91.91,1500
179,91.8575,91.91,91.8575,91.91,3981
180,91.87,91.88,91.85,91.88,1450
181,91.93,91.93,91.85,91.86,2600
182,91.95,91.95,91.9,91.91,2300
183,91.9,91.94,91.88,91.94,5600
184,91.9,91.96,91.9,91.92,2695
185,91.9,91.9397,91.9,91.9298,2200
186,91.88,91.9,91.88,91.9,1900
187,91.89,91.89,91.87,91.87,502
188,91.85,91.88,91.85,91.88,8570
189,91.85,91.86,91.84,91.86,1633
190,91.875,91.88,91.84,91.84,1715
191,91.88,91.89,91.87,91.87,701
192,91.89,91.91,91.89,91.91,2600
193,91.92,91.92,91.88,91.88,1493
194,91.87,91.94,91.87,91.93,5895
195,91.81,91.87,91.81,91.87,1966
196,91.84,91.84,91.79,91.8092,3309
197,91.8,91.84,91.79,91.84,4008
198,91.78,91.8,91.76,91.8,2100
199,91.8,91.82,91.8,91.8,677
200,91.79,91.81,91.79,91.81,400
201,91.79,91.83,91.79,91.83,2750
202,91.79,91.81,91.79,91.79,1400
203,91.77,91.79,91.76,91.78,2906
204,91.84,91.84,91.75,91.76,2402
205,91.9,91.9,91.8271,91.8271,1153
206,91.88,91.91,91.88,91.9,1327
207,91.84,91.87,91.82,91.87,2400
208,91.83,91.84,91.82,91.83,2728
209,91.814,91.83,91.78,91.83,2825
210,91.79,91.81,91.79,91.81,801
211,91.67,91.74,91.65,91.74,2100
212,91.72,91.72,91.62,91.67,3022
213,91.76,91.78,91.72,91.74,1400
214,91.8,91.8,91.72,91.74,1205
215,91.835,91.87,91.78,91.78,6147
216,91.84,91.8525,91.83,91.85,1800
217,91.86,91.86,91.85,91.86,900
218,91.81,91.88,91.8004,91.88,3320
219,91.82,91.82,91.77,91.81,1582
220,91.7765,91.83,91.7765,91.8,1700
221,91.81,91.81,91.78,91.79,1100
222,91.86,91.86,91.82,91.82,400
223,91.81,91.85,91.81,91.85,1400
224,91.82,91.82,91.81,91.81,200
225,91.74,91.83,91.74,91.81,1800
226,91.8,91.83,91.77,91.77,2634
227,91.82,91.84,91.81,91.81,900
228,91.82,91.82,91.8,91.8,700
229,91.79,91.84,91.79,91.83,1400
230,91.784,91.784,91.784,91.784,103
231,91.8,91.85,91.8,91.82,2100
232,91.78,91.783,91.765,91.78,2200
233,91.81,91.81,91.771,91.771,1300
234,91.8,91.81,91.8,91.81,500
235,91.82,91.83,91.815,91.815,880
236,91.83,91.83,91.81,91.81,500
237,91.7928,91.815,91.7928,91.815,1500
238,91.82,91.82,91.7701,91.7701,900
239,91.8,91.86,91.8,91.83,1936
240,91.8,91.8,91.78,91.78,1042
241,91.82,91.82,91.78,91.78,688
242,91.78,91.82,91.78,91.805,1300
243,91.86,91.86,91.8,91.8,701
244,91.88,91.88,91.85,91.85,1597
245,91.8648,91.88,91.86,91.86,450
246,91.88,91.88,91.81,91.84,2000
247,91.88,91.9,91.86,91.87,2044
248,91.8628,91.87,91.8628,91.87,383
249,91.85,91.87,91.85,91.861,1200
250,91.83,91.86,91.83,91.85,1449
251,91.88,91.9,91.83,91.83,2834
252,91.86,91.88,91.84,91.88,3500
253,91.8,91.86,91.8,91.85,1013
254,91.84,91.89,91.81,91.82,2650
255,91.87,91.893,91.84,91.84,1775
256,91.885,91.9,91.87,91.88,1400
257,91.86,91.88,91.86,91.88,2050
258,91.906,91.92,91.84,91.8688,2691
259,91.935,91.935,91.88,91.88,1100
260,91.92,91.92,91.87,91.91,2683
261,91.88,91.9,91.87,91.9,1058
262,91.9,91.9,91.86,91.87,1277
263,91.89,91.89,91.89,91.89,795
264,91.85,91.865,91.85,91.86,2200
265,91.87,91.88,91.85,91.86,800
266,91.83,91.88,91.82,91.85,2400
267,91.87,91.87,91.83,91.83,4280
268,91.86,91.875,91.86,91.86,500
269,91.83,91.86,91.83,91.86,1786
270,91.84,91.87,91.83,91.83,2200
271,91.8178,91.85,91.8178,91.85,1425
272,91.86,91.88,91.83,91.83,3306
273,91.87,91.89,91.85,91.85,1000
274,91.89,91.9,91.86,91.86,1436
275,91.905,91.905,91.88,91.89,2271
276,91.91,91.91,91.89,91.89,1757
277,91.86,91.915,91.86,91.915,1448
278,91.845,91.86,91.83,91.85,1440
279,91.83,91.85,91.83,91.85,2400
280,91.8,91.805,91.78,91.8,4146
281,91.81,91.81,91.76,91.79,1570
282,91.77,91.81,91.77,91.81,1900
283,91.82,91.85,91.8,91.82,1700
285,91.78,91.87,91.78,91.85,4313
286,91.8,91.81,91.78,91.81,1706
287,91.83,91.86,91.8,91.8,1350
288,91.845,91.86,91.845,91.86,300
289,91.89,91.89,91.83,91.86,6071
290,91.88,91.89,91.86,91.87,1958
291,91.93,91.93,91.89,91.89,1400
292,91.91,91.949,91.91,91.935,3127
293,91.87,91.9,91.87,91.9,800
294,91.84,91.87,91.82,91.87,2100
295,91.86,91.87,91.835,91.835,1669
296,91.86,91.86,91.84,91.86,1772
297,91.88,91.89,91.85,91.85,2201
298,91.84,91.87,91.82,91.86,3000
299,91.84,91.87,91.83,91.8355,3424
300,91.835,91.835,91.835,91.835,100
301,91.82,91.84,91.81,91.82,3000
302,91.8,91.82,91.78,91.81,3000
303,91.8,91.82,91.7934,91.8,1800
304,91.77,91.81,91.77,91.79,1470
305,91.81,91.81,91.77,91.79,3290
306,91.79,91.81,91.77,91.81,1300
307,91.785,91.79,91.76,91.77,2600
308,91.78,91.78,91.78,91.78,650
309,91.84,91.84,91.8,91.8,745
310,91.79,91.83,91.79,91.83,800
312,91.75,91.83,91.74,91.78,3730
313,91.77,91.79,91.74,91.75,8507
314,91.83,91.83,91.76,91.8,8166
315,91.74,91.81,91.74,91.81,1125
316,91.75,91.75,91.71,91.72,4149
317,91.6801,91.74,91.6801,91.74,2007
318,91.66,91.7,91.65,91.7,1769
319,91.7,91.7,91.69,91.69,800
320,91.7,91.72,91.7,91.71,1700
321,91.7201,91.7201,91.7,91.7,1200
322,91.71,91.71,91.71,91.71,600
323,91.7,91.73,91.66,91.73,3305
324,91.7,91.7,91.68,91.7,1500
325,91.68,91.7199,91.68,91.71,1072
326,91.72,91.72,91.72,91.72,349
327,91.735,91.74,91.73,91.73,909
328,91.7,91.76,91.68,91.75,2700
329,91.69,91.71,91.69,91.7,1200
330,91.68,91.695,91.64,91.6917,7499
331,91.74,91.74,91.67,91.685,3300
332,91.74,91.74,91.73,91.73,1000
333,91.8,91.8,91.74,91.74,1100
334,91.8,91.82,91.8,91.82,3100
335,91.8,91.81,91.79,91.79,2564
336,91.72,91.81,91.72,91.81,1551
337,91.755,91.755,91.74,91.74,800
338,91.7,91.77,91.7,91.77,5413
339,91.78,91.78,91.7,91.7,7094
340,91.81,91.83,91.78,91.78,4391
341,91.82,91.85,91.81,91.81,1400
342,91.82,91.82,91.82,91.82,600
343,91.8149,91.83,91.81,91.82,2185
344,91.78,91.81,91.78,91.81,800
345,91.83,91.83,91.81,91.81,2500
346,91.83,91.85,91.8,91.83,3354
347,91.89,91.89,91.83,91.83,1902
348,91.9,91.92,91.87,91.92,2900
349,91.8,91.89,91.8,91.89,3900
350,91.9,91.9,91.82,91.82,2925
351,91.922,91.95,91.88,91.88,4824
352,91.93,91.94,91.91,91.92,7179
353,91.89,91.905,91.89,91.9,1902
354,91.93,91.93,91.88,91.905,2630
355,91.921,91.97,91.921,91.93,3253
356,91.955,91.955,91.92,91.92,2100
357,91.95,91.97,91.94,91.97,1901
358,91.9,91.93,91.88,91.93,6919
359,91.92,91.92,91.89,91.89,4259
360,91.89,91.91,91.87,91.91,2600
361,91.93,91.96,91.9,91.9,3345
362,91.95,91.96,91.94,91.95,1100
363,91.93,91.94,91.92,91.94,6885
364,91.98,91.98,91.94,91.94,1603
365,91.985,91.99,91.95,91.98,3749
366,91.96,91.98,91.95,91.98,4501
367,91.99,92,91.95,91.96,5036
368,92.05,92.06,91.98,91.99,11243
369,92.06,92.07,92.05,92.07,3301
370,91.99,92.05,91.99,92.05,5881
371,91.97,92.03,91.96,92,4200
372,91.96,91.96,91.93,91.95,5899
373,91.96,91.96,91.95,91.95,2400
374,91.97,91.98,91.96,91.97,2711
375,91.98,92,91.96,91.98,13005
376,91.93,91.98,91.91,91.98,5124
377,91.96,91.97,91.93,91.94,2900
378,91.98,91.98,91.955,91.96,4428
379,91.94,91.99,91.94,91.99,13758
380,91.91,91.94,91.89,91.93,11190
381,91.81,91.91,91.81,91.905,10274
382,91.83,91.845,91.815,91.82,8320
383,91.825,91.85,91.82,91.84,4702
384,91.88,91.88,91.84,91.84,7520
385,91.89,91.91,91.87,91.875,15953
386,91.88,91.9,91.84,91.86,13143
387,91.88,91.9,91.86,91.89,13966
388,91.9,91.93,91.88,91.88,6603
389,91.87,91.9,91.86,91.9,13567
390,91.87,91.9,91.8,91.87,38304
