EOG,EOG Resources,Energy,3,Oil & Gas Exploration & Production,52556359050,3369730
a1498743000,89.36,89.47,89.36,89.47,22979
1,89.57,89.57,89.3,89.42,16942
2,89.58,89.64,89.4702,89.58,8769
3,89.69,89.8,89.49,89.57,5071
4,89.75,89.76,89.68,89.72,8372
5,89.71,89.91,89.7,89.74,11661
6,89.68,89.78,89.56,89.71,7600
7,89.66,89.69,89.59,89.65,7200
8,89.52,89.635,89.5,89.59,4734
9,89.5,89.62,89.5,89.545,4100
10,89.68,89.76,89.51,89.52,7200
11,89.88,89.88,89.69,89.715,7688
12,89.82,89.93,89.79,89.89,9956
13,89.77,89.81,89.65,89.81,4555
14,89.74,89.83,89.74,89.81,8800
15,89.78,89.8,89.67,89.76,4976
16,89.71,89.8,89.64,89.78,8100
17,89.85,89.85,89.72,89.77,3266
18,89.9,89.9,89.83,89.87,6099
19,89.96,89.99,89.93,89.93,9328
20,90.03,90.09,89.99,89.99,21627
21,90.12,90.12,89.99,90.01,6440
22,90.11,90.23,89.8,90.139,53363
23,90.3,90.33,90.14,90.14,19633
24,90.22,90.33,90.2,90.31,25007
25,90.29,90.39,90.21,90.215,22810
26,90.2,90.36,90.131,90.28,19039
27,90.1,90.22,90.1,90.186,7902
28,90,90.01,89.91,90,5200
29,90.18,90.18,90.02,90.02,4200
30,90.155,90.2,90.11,90.11,5100
31,89.99,90.14,89.97,90.14,12307
32,90.01,90.03,89.96,89.98,7927
33,90.01,90.14,89.98,90,8394
34,90,90.03,89.92,90.01,4529
35,89.88,90.005,89.84,90,10824
36,89.86,90,89.84,89.84,8200
37,89.86,89.89,89.78,89.87,7635
38,89.7,89.89,89.67,89.89,7646
39,89.74,89.77,89.69,89.72,9210
40,89.7031,89.73,89.61,89.72,7088
41,89.73,89.78,89.71,89.73,8500
42,89.73,89.77,89.7,89.7,8490
43,89.755,89.79,89.74,89.76,5000
44,89.93,89.93,89.765,89.765,7199
45,89.93,89.94,89.88,89.9328,5027
46,89.855,89.92,89.83,89.92,8162
47,89.855,89.88,89.8002,89.86,14489
48,89.85,89.9,89.81,89.85,29170
49,89.92,90,89.85,89.86,9805
50,89.9152,89.97,89.91,89.9225,5519
51,89.815,89.92,89.815,89.89,2956
52,89.77,89.88,89.77,89.84,9023
53,89.74,89.79,89.73,89.785,4900
54,89.76,89.79,89.66,89.72,15170
55,89.76,89.85,89.75,89.78,7000
56,89.79,89.83,89.76,89.77,13596
57,89.88,89.88,89.78,89.78,14401
58,89.95,90,89.89,89.89,10125
59,89.94,89.995,89.94,89.95,2480
60,89.91,89.97,89.91,89.96,7750
61,89.79,89.92,89.77,89.91,10343
62,89.79,89.83,89.79,89.8,3600
63,89.86,89.9151,89.79,89.81,10005
64,89.86,89.89,89.83,89.84,7766
65,89.92,89.98,89.87,89.88,7663
66,89.88,89.95,89.86,89.95,2854
67,89.995,90.03,89.88,89.88,12979
68,90.02,90.04,90,90.01,3566
69,90.04,90.06,90.0258,90.0258,4220
70,90,90.06,89.97,90.04,10022
71,90.07,90.07,90.0134,90.02,3841
72,89.96,90.11,89.921,90.11,8444
73,90.12,90.12,89.98,89.98,6200
74,90.16,90.16,90.14,90.15,2110
75,90.21,90.21,90.15,90.19,3247
76,90.22,90.27,90.17,90.2,8987
77,90.095,90.21,90.095,90.21,4568
78,90.15,90.16,90.12,90.12,8272
79,90.02,90.14,90.01,90.14,6401
80,90.2,90.2,89.99,90.04,19130
81,90.26,90.26,90.1477,90.19,12505
82,90.3,90.3,90.25,90.28,2400
83,90.3,90.34,90.29,90.31,10447
84,90.3,90.35,90.295,90.3,6950
85,90.28,90.3346,90.27,90.32,7236
86,90.42,90.44,90.29,90.3,4312
87,90.39,90.4713,90.34,90.45,8702
88,90.4,90.43,90.38,90.4,6237
89,90.46,90.48,90.39,90.4,3100
90,90.5,90.535,90.465,90.465,8042
91,90.47,90.5024,90.45,90.49,7309
92,90.505,90.52,90.49,90.5,6225
93,90.54,90.54,90.5,90.52,7819
94,90.59,90.59,90.514,90.5253,9570
95,90.59,90.6,90.56,90.58,11749
96,90.66,90.67,90.585,90.585,10126
97,90.74,90.745,90.68,90.7,8907
98,90.72,90.79,90.72,90.74,15320
99,90.665,90.74,90.66,90.72,7636
100,90.63,90.67,90.53,90.67,7019
101,90.71,90.73,90.6,90.62,8192
102,90.73,90.765,90.715,90.7176,11199
103,90.73,90.74,90.64,90.74,6402
104,90.79,90.8,90.74,90.7446,6048
105,90.82,90.86,90.79,90.8,8400
106,90.84,90.85,90.77,90.82,4500
107,90.83,90.88,90.81,90.86,3540
108,90.8,90.89,90.79,90.83,4251
109,90.69,90.78,90.675,90.78,5403
110,90.58,90.71,90.53,90.71,2766
111,90.5,90.58,90.5,90.55,6032
112,90.59,90.6,90.49,90.49,1602
113,90.48,90.605,90.48,90.605,10278
114,90.5,90.56,90.465,90.48,11921
115,90.53,90.56,90.495,90.5,6433
116,90.545,90.56,90.52,90.54,6983
117,90.49,90.5674,90.44,90.545,21186
118,90.5696,90.58,90.485,90.485,11810
119,90.66,90.6816,90.57,90.59,4800
120,90.61,90.71,90.6,90.67,4455
121,90.53,90.67,90.53,90.63,4398
122,90.48,90.495,90.45,90.48,9506
123,90.45,90.48,90.41,90.48,20748
124,90.46,90.47,90.41,90.46,27475
125,90.4,90.45,90.37,90.44,18192
126,90.44,90.47,90.385,90.3932,13643
127,90.455,90.47,90.43,90.46,6575
128,90.47,90.5,90.44,90.455,13537
129,90.46,90.47,90.39,90.46,12957
130,90.38,90.46,90.375,90.435,5300
131,90.32,90.3965,90.28,90.3965,13891
132,90.27,90.3,90.25,90.29,7694
133,90.28,90.32,90.22,90.27,5598
134,90.21,90.345,90.161,90.33,9547
135,90.32,90.34,90.19,90.21,30782
136,90.41,90.44,90.35,90.35,5626
137,90.47,90.48,90.42,90.42,2426
138,90.55,90.57,90.5,90.51,1900
139,90.485,90.56,90.4787,90.5245,5980
140,90.53,90.54,90.47,90.47,3778
141,90.545,90.61,90.53,90.55,4143
142,90.61,90.62,90.515,90.53,2700
143,90.64,90.64,90.49,90.59,3800
144,90.59,90.68,90.59,90.65,10315
145,90.64,90.66,90.55,90.59,5000
146,90.61,90.6276,90.57,90.6,5259
147,90.6087,90.6372,90.6,90.61,2971
148,90.62,90.62,90.56,90.6,3800
149,90.68,90.71,90.62,90.62,6772
150,90.73,90.74,90.66,90.69,4695
151,90.71,90.73,90.63,90.73,5980
152,90.72,90.72,90.66,90.71,4544
153,90.8,90.8,90.7,90.73,4400
154,90.8125,90.82,90.76,90.82,3700
155,90.82,90.825,90.8,90.82,2370
156,90.81,90.85,90.81,90.8282,2453
157,90.85,90.85,90.825,90.84,4080
158,90.86,90.9,90.81,90.84,7800
159,90.86,90.9,90.85,90.89,17410
160,90.875,90.89,90.82,90.86,4900
161,90.78,90.9,90.78,90.885,4669
162,90.6725,90.76,90.65,90.76,7265
163,90.628,90.6785,90.61,90.6686,3648
164,90.62,90.66,90.61,90.61,2599
165,90.61,90.63,90.56,90.61,5753
166,90.6337,90.64,90.615,90.615,1124
167,90.59,90.655,90.59,90.655,4021
168,90.62,90.66,90.59,90.59,3600
169,90.51,90.63,90.51,90.6168,3227
170,90.51,90.54,90.49,90.5,4843
171,90.54,90.55,90.51,90.52,3904
172,90.65,90.65,90.54,90.55,10232
173,90.7,90.7,90.63,90.63,4419
174,90.71,90.74,90.67,90.67,6000
175,90.68,90.72,90.65,90.72,4974
176,90.606,90.68,90.606,90.68,4425
177,90.55,90.62,90.54,90.62,3200
178,90.46,90.55,90.41,90.55,10885
179,90.4,90.4506,90.4,90.45,2982
180,90.35,90.42,90.3,90.41,22092
181,90.36,90.4,90.34,90.35,22442
182,90.44,90.44,90.36,90.36,28250
183,90.42,90.45,90.42,90.44,3431
184,90.42,90.42,90.355,90.41,10900
185,90.46,90.49,90.44,90.44,6183
186,90.48,90.51,90.46,90.46,5900
187,90.493,90.5,90.47,90.47,3000
188,90.51,90.52,90.49,90.49,5932
189,90.42,90.51,90.42,90.51,7751
190,90.44,90.45,90.4,90.42,2351
191,90.44,90.47,90.43,90.45,5450
192,90.37,90.45,90.37,90.45,4516
193,90.37,90.41,90.35,90.35,8058
194,90.37,90.41,90.35,90.38,5995
195,90.41,90.41,90.36,90.36,3032
196,90.48,90.48,90.39,90.39,5030
197,90.5,90.5,90.46,90.46,4383
198,90.51,90.51,90.48,90.4988,2573
199,90.56,90.56,90.51,90.51,6147
200,90.505,90.59,90.47,90.55,9226
201,90.48,90.53,90.48,90.51,1775
202,90.55,90.55,90.46,90.49,6050
203,90.55,90.58,90.55,90.56,2573
204,90.6,90.6,90.55,90.56,3614
205,90.63,90.63,90.6,90.61,6748
206,90.64,90.66,90.62,90.62,5584
207,90.61,90.645,90.61,90.64,7717
208,90.63,90.63,90.59,90.61,6400
209,90.67,90.68,90.59,90.61,8588
210,90.725,90.74,90.6686,90.6686,4805
211,90.82,90.82,90.71,90.73,8076
212,90.82,90.85,90.8,90.84,14041
213,90.89,90.91,90.81,90.82,9927
214,90.84,90.8801,90.82,90.88,3860
215,90.87,90.9,90.85,90.85,6900
216,90.83,90.89,90.83,90.87,10904
217,90.7,90.84,90.68,90.83,3915
218,90.75,90.75,90.65,90.65,5300
219,90.65,90.73,90.65,90.72,5426
220,90.77,90.77,90.64,90.67,7634
221,90.64,90.78,90.64,90.75,5947
222,90.61,90.65,90.6,90.64,3603
223,90.62,90.6204,90.6,90.62,4012
224,90.62,90.67,90.59,90.63,11812
225,90.66,90.67,90.62,90.625,14679
226,90.67,90.705,90.64,90.66,7716
227,90.68,90.68,90.64,90.67,14387
228,90.67,90.68,90.64,90.68,3932
229,90.65,90.73,90.65,90.68,5566
230,90.56,90.6558,90.56,90.65,4670
231,90.605,90.64,90.56,90.57,7850
232,90.615,90.615,90.55,90.6,6056
233,90.6,90.65,90.6,90.615,5014
234,90.605,90.62,90.59,90.61,6384
235,90.65,90.66,90.61,90.61,3900
236,90.62,90.63,90.5011,90.63,17844
237,90.605,90.62,90.58,90.6156,5562
238,90.66,90.67,90.59,90.61,7576
239,90.6,90.645,90.58,90.63,5503
240,90.5501,90.58,90.5324,90.56,4729
241,90.63,90.68,90.55,90.57,9031
242,90.62,90.68,90.62,90.64,10050
243,90.74,90.75,90.6,90.615,8892
244,90.71,90.82,90.71,90.76,13482
245,90.65,90.71,90.63,90.71,4326
246,90.66,90.71,90.63,90.64,8895
247,90.52,90.64,90.52,90.64,4158
248,90.54,90.54,90.44,90.51,7969
249,90.54,90.6044,90.5119,90.5119,20316
250,90.56,90.565,90.5039,90.54,6300
251,90.59,90.62,90.55,90.55,3000
252,90.56,90.59,90.55,90.59,1425
253,90.58,90.6,90.53,90.56,8619
254,90.53,90.61,90.53,90.57,2574
255,90.52,90.53,90.5,90.5,8428
256,90.555,90.555,90.5,90.52,9437
257,90.515,90.6,90.515,90.55,5590
258,90.555,90.56,90.5,90.5,3974
259,90.5666,90.5666,90.55,90.55,5719
260,90.59,90.6,90.56,90.565,7502
261,90.62,90.62,90.575,90.6,9397
262,90.61,90.64,90.6,90.63,3561
263,90.575,90.62,90.575,90.61,3160
264,90.58,90.59,90.565,90.58,8098
265,90.6,90.6,90.565,90.58,4300
266,90.58,90.61,90.56,90.59,5137
267,90.58,90.63,90.57,90.57,4021
268,90.63,90.63,90.565,90.6,3300
269,90.61,90.6361,90.565,90.6361,3620
270,90.65,90.669,90.6,90.62,7346
271,90.57,90.6493,90.57,90.63,3754
272,90.59,90.6,90.55,90.57,2880
273,90.59,90.605,90.58,90.59,6529
274,90.58,90.61,90.535,90.59,4400
275,90.58,90.615,90.55,90.59,6701
276,90.58,90.62,90.58,90.6,5295
277,90.61,90.62,90.58,90.58,4569
278,90.57,90.63,90.555,90.6,3870
279,90.56,90.59,90.545,90.55,3385
280,90.53,90.57,90.52,90.57,9936
281,90.525,90.525,90.5117,90.52,515
282,90.6,90.62,90.5125,90.52,12326
283,90.61,90.64,90.6,90.64,1753
284,90.61,90.61,90.54,90.61,12711
285,90.57,90.6049,90.56,90.6049,4600
286,90.59,90.63,90.56,90.57,14327
287,90.66,90.67,90.59,90.59,4000
288,90.63,90.64,90.58,90.64,4746
289,90.61,90.64,90.58,90.61,5160
290,90.7,90.7,90.58,90.59,2635
291,90.63,90.69,90.61,90.68,8100
292,90.59,90.66,90.59,90.62,4288
293,90.7,90.7,90.61,90.62,5312
294,90.68,90.78,90.65,90.69,12165
295,90.64,90.74,90.64,90.73,5408
296,90.68,90.7,90.64,90.66,11440
297,90.69,90.71,90.68,90.68,13500
298,90.72,90.76,90.68,90.68,6105
299,90.76,90.76,90.68,90.68,3171
300,90.68,90.75,90.68,90.74,3208
301,90.59,90.68,90.55,90.68,9299
302,90.59,90.64,90.57,90.59,16249
303,90.65,90.66,90.61,90.61,2000
304,90.6,90.66,90.59,90.66,2950
305,90.61,90.61,90.5889,90.5889,1740
306,90.59,90.64,90.59,90.61,6251
307,90.59,90.6,90.565,90.59,5943
308,90.65,90.66,90.585,90.59,4050
309,90.65,90.65,90.6205,90.64,1786
310,90.65,90.69,90.65,90.66,3350
311,90.63,90.65,90.62,90.64,2800
312,90.68,90.68,90.61,90.62,6000
313,90.65,90.7,90.64,90.67,2625
314,90.688,90.7,90.655,90.66,4016
315,90.679,90.68,90.64,90.68,2618
316,90.72,90.72,90.661,90.661,2800
317,90.705,90.71,90.68,90.7,2600
318,90.69,90.73,90.69,90.72,2300
319,90.6493,90.7,90.62,90.69,2896
320,90.57,90.61,90.57,90.61,2320
321,90.51,90.6,90.51,90.6,1600
322,90.38,90.54,90.38,90.54,3003
323,90.385,90.4,90.35,90.35,7742
324,90.41,90.43,90.3899,90.39,3577
325,90.41,90.42,90.4,90.4,1600
326,90.35,90.42,90.35,90.42,2150
327,90.4033,90.4033,90.33,90.35,6084
328,90.46,90.46,90.36,90.4,12098
329,90.46,90.5,90.43,90.44,6743
330,90.5,90.5,90.45,90.45,2847
331,90.46,90.5,90.45,90.5,6524
332,90.45,90.47,90.41,90.46,6600
333,90.4,90.44,90.36,90.44,6769
334,90.43,90.44,90.38,90.39,5749
335,90.34,90.44,90.34,90.44,5024
336,90.295,90.33,90.27,90.33,6085
337,90.26,90.3,90.26,90.29,3528
338,90.24,90.27,90.24,90.26,5156
339,90.2401,90.28,90.2401,90.26,2200
340,90.195,90.31,90.195,90.26,5029
341,90.14,90.22,90.12,90.21,4707
342,90.14,90.14,90.11,90.14,3091
343,90.235,90.235,90.13,90.13,8100
344,90.26,90.27,90.22,90.235,11391
345,90.33,90.33,90.26,90.27,1600
346,90.32,90.33,90.3,90.33,3700
347,90.26,90.32,90.23,90.3,7358
348,90.22,90.27,90.22,90.27,3332
349,90.27,90.27,90.2,90.2,14900
350,90.27,90.32,90.27,90.28,3516
351,90.31,90.31,90.27,90.27,2650
352,90.305,90.34,90.29,90.31,4518
353,90.26,90.29,90.23,90.29,6188
354,90.31,90.31,90.27,90.27,8088
355,90.29,90.32,90.29,90.319,4462
356,90.2532,90.2856,90.24,90.2856,5081
357,90.24,90.26,90.23,90.26,6052
358,90.16,90.25,90.16,90.24,6200
359,90.24,90.24,90.15,90.17,11623
360,90.26,90.29,90.21,90.24,7345
361,90.24,90.27,90.24,90.27,5742
362,90.28,90.28,90.25,90.26,8821
363,90.3,90.32,90.27,90.29,9817
364,90.325,90.34,90.31,90.32,7649
365,90.37,90.39,90.34,90.34,8075
366,90.37,90.38,90.35,90.37,7401
367,90.37,90.38,90.3375,90.37,13097
368,90.37,90.41,90.34,90.37,9616
369,90.45,90.48,90.38,90.38,15263
370,90.43,90.51,90.43,90.47,25041
371,90.45,90.51,90.42,90.42,38760
372,90.44,90.46,90.42,90.45,9668
373,90.36,90.44,90.32,90.4301,20143
374,90.33,90.36,90.33,90.35,6965
375,90.125,90.33,90.11,90.33,14498
376,90.065,90.2,90.05,90.135,26109
377,89.95,90.06,89.92,90.06,17209
378,89.89,89.96,89.89,89.95,7712
379,89.8,89.899,89.78,89.89,21087
380,89.8,89.86,89.785,89.8,14324
381,89.87,89.87,89.79,89.8,27033
382,89.855,89.88,89.84,89.875,15393
383,89.915,89.915,89.8547,89.855,21223
384,89.92,89.94,89.91,89.92,17418
385,89.86,89.92,89.83,89.91,16359
386,89.91,89.92,89.87,89.875,31569
387,89.94,89.95,89.9,89.91,24998
388,90.05,90.06,89.92,89.94,34410
389,90,90.08,89.99,90.04,39193
390,90.03,90.08,89.96,90,71672
