PPG,PPG Industries,Materials,8,Specialty Chemicals,28239455254,1290671
a1498743000,111.06,111.06,111.06,111.06,7051
3,111.19,111.3,111.19,111.3,300
4,111.1,111.205,111.1,111.205,1100
5,111.11,111.11,111.11,111.11,100
6,111.03,111.03,111.03,111.03,200
7,110.98,111.06,110.98,111.06,300
9,111.07,111.07,111.06,111.06,300
11,111.11,111.115,111.05,111.115,300
12,111.04,111.08,111.04,111.08,991
13,110.98,111.08,110.95,111,2500
14,110.94,111.05,110.94,111.01,1375
15,110.88,110.88,110.88,110.88,110
16,110.79,110.965,110.79,110.965,900
17,110.75,110.79,110.745,110.79,500
18,110.79,110.86,110.79,110.83,900
19,110.87,110.91,110.86,110.86,700
20,110.945,110.945,110.89,110.89,500
21,110.945,110.98,110.94,110.94,2353
22,110.97,110.99,110.93,110.97,1400
23,110.96,111.025,110.96,111.025,983
24,110.91,110.92,110.91,110.92,200
25,110.98,110.98,110.91,110.945,1000
26,110.96,110.97,110.96,110.97,300
27,111,111,110.98,110.98,762
28,111.005,111.005,111.005,111.005,100
29,110.965,111.03,110.9473,111.03,370
30,110.86,110.96,110.86,110.92,1000
32,110.86,110.89,110.855,110.86,2037
33,110.96,110.96,110.88,110.88,898
34,110.91,110.97,110.91,110.97,200
35,110.84,110.94,110.84,110.94,1448
36,110.82,110.85,110.81,110.85,3341
37,110.84,110.84,110.83,110.83,1680
39,110.84,110.87,110.84,110.86,2227
40,110.9,110.9,110.79,110.8468,6835
41,110.903,110.903,110.84,110.88,571
43,110.86,110.86,110.86,110.86,200
44,110.83,110.85,110.8022,110.85,2326
45,110.82,110.83,110.8,110.8199,2357
46,110.83,110.89,110.82,110.82,2584
47,110.8,110.8,110.755,110.8,800
48,110.77,110.86,110.77,110.81,1831
51,110.74,110.8,110.74,110.8,1724
52,110.85,110.85,110.775,110.775,1000
53,110.82,110.85,110.82,110.83,1400
54,110.87,110.87,110.87,110.87,187
55,110.91,110.91,110.85,110.89,500
56,110.7968,110.88,110.78,110.85,2215
57,110.86,110.86,110.8,110.82,1100
58,110.94,110.94,110.89,110.89,500
60,110.95,110.96,110.93,110.93,1300
61,111.01,111.01,110.935,110.935,900
62,110.99,111.04,110.95,111.03,5208
63,111.03,111.03,110.9,110.98,5499
64,111.015,111.06,110.98,110.98,1000
65,111.01,111.03,111,111.01,500
66,111.01,111.01,110.99,111.01,600
67,111.03,111.03,110.98,110.99,1600
68,111.02,111.06,111,111.06,500
69,111.045,111.05,111.03,111.03,700
70,111.01,111.03,110.98,111.03,1100
71,111.01,111.01,110.98,110.99,505
72,111.015,111.04,111.015,111.03,1367
73,110.96,111,110.96,111,600
74,110.91,110.93,110.9,110.93,300
75,110.93,110.93,110.91,110.91,300
76,110.92,110.92,110.91,110.91,300
77,110.93,111,110.93,110.95,2146
78,110.93,110.93,110.93,110.93,100
79,110.9,110.93,110.9,110.93,300
80,110.96,110.96,110.96,110.96,100
81,110.84,110.91,110.81,110.9,1800
82,110.9,110.91,110.84,110.84,2600
83,110.95,110.95,110.92,110.92,1823
84,110.93,110.96,110.93,110.95,1839
85,110.91,110.92,110.91,110.92,400
86,110.88,110.9,110.87,110.87,500
87,110.82,110.87,110.82,110.87,832
88,110.82,110.82,110.81,110.81,500
89,110.86,110.8817,110.85,110.85,3450
90,110.87,110.87,110.85,110.85,400
91,110.85,110.86,110.83,110.84,800
92,110.86,110.86,110.85,110.85,600
93,110.82,110.865,110.82,110.865,1617
94,110.84,110.84,110.8,110.82,2000
95,110.87,110.88,110.84,110.88,700
96,110.88,110.9,110.88,110.88,1200
97,110.88,110.91,110.87,110.9,1100
98,110.86,110.91,110.81,110.88,3910
99,110.8114,110.88,110.8,110.87,2557
100,110.81,110.81,110.79,110.8,2000
101,110.82,110.83,110.79,110.81,2800
102,110.795,110.83,110.78,110.83,1400
103,110.775,110.82,110.75,110.78,7600
104,110.79,110.8,110.73,110.75,3270
105,110.78,110.83,110.76,110.7869,3071
106,110.8,110.81,110.775,110.81,3220
107,110.8,110.81,110.775,110.775,1700
108,110.79,110.81,110.75,110.785,620
109,110.805,110.82,110.79,110.79,400
110,110.83,110.84,110.805,110.805,1468
111,110.8,110.84,110.8,110.82,1058
112,110.82,110.82,110.77,110.82,2700
113,110.81,110.81,110.81,110.81,100
114,110.79,110.83,110.79,110.81,2300
115,110.78,110.79,110.77,110.79,858
116,110.8,110.81,110.78,110.78,1456
117,110.75,110.8,110.735,110.8,1300
118,110.76,110.78,110.74,110.745,2410
119,110.725,110.76,110.72,110.75,3400
120,110.69,110.74,110.63,110.73,1500
121,110.66,110.69,110.64,110.69,7805
122,110.62,110.67,110.58,110.64,12071
123,110.44,110.6,110.44,110.6,2500
124,110.5,110.5,110.46,110.46,1300
125,110.5,110.5,110.5,110.5,200
126,110.53,110.56,110.5,110.52,600
127,110.57,110.57,110.55,110.55,900
128,110.57,110.6,110.57,110.58,800
129,110.54,110.565,110.53,110.565,2100
130,110.52,110.54,110.495,110.54,1300
131,110.535,110.535,110.48,110.48,1194
132,110.515,110.515,110.515,110.515,100
133,110.45,110.54,110.45,110.54,1500
134,110.54,110.54,110.48,110.48,1100
136,110.54,110.57,110.54,110.55,500
137,110.57,110.57,110.56,110.56,500
138,110.5673,110.58,110.55,110.58,400
139,110.47,110.55,110.47,110.55,1300
140,110.52,110.52,110.49,110.49,905
141,110.42,110.49,110.42,110.49,800
142,110.49,110.49,110.44,110.44,903
143,110.43,110.44,110.43,110.44,500
144,110.38,110.41,110.38,110.41,800
145,110.34,110.36,110.33,110.36,2247
146,110.3,110.32,110.291,110.31,1335
147,110.28,110.29,110.24,110.29,700
148,110.2,110.28,110.2,110.24,1309
149,110.18,110.26,110.18,110.25,1298
150,110.18,110.18,110.18,110.18,501
151,110.1,110.16,110.07,110.15,2800
152,110.12,110.15,110.08,110.085,1200
153,110.1,110.1138,110.1,110.1138,300
154,110.16,110.19,110.12,110.12,1200
155,110.17,110.17,110.17,110.17,293
156,110.13,110.13,110.13,110.13,200
157,110.105,110.13,110.09,110.13,700
158,110.16,110.16,110.11,110.11,2200
159,110.15,110.15,110.15,110.15,400
160,110.14,110.14,110.14,110.14,200
161,110.15,110.15,110.12,110.12,700
162,110.14,110.16,110.14,110.15,1864
164,110.12,110.13,110.11,110.13,900
165,110.085,110.1116,110.085,110.1,1291
166,110.05,110.09,110.04,110.08,1750
167,110.03,110.065,110.03,110.05,2108
168,110.04,110.06,110.04,110.04,813
169,110.04,110.04,110.03,110.03,200
170,110.03,110.04,110.03,110.04,300
171,110.06,110.06,110.055,110.055,200
172,110.01,110.01,110.01,110.01,200
173,110.025,110.025,110.025,110.025,200
174,110.035,110.05,110.01,110.01,1400
175,110.01,110.04,110.01,110.04,944
176,110.09,110.09,110.01,110.02,1410
177,110.05,110.09,110.05,110.09,400
178,110.03,110.06,110.03,110.04,1025
179,110.01,110.01,110.01,110.01,200
180,110.03,110.03,110.01,110.01,1500
181,110.07,110.09,110.05,110.05,812
182,110.06,110.075,110.06,110.075,600
183,110.01,110.1,110.01,110.09,1400
184,109.96,110,109.96,110,504
185,109.925,109.98,109.92,109.96,3862
186,109.98,109.98,109.925,109.925,800
187,109.96,109.96,109.96,109.96,100
188,110.02,110.02,109.97,109.97,681
189,109.98,109.99,109.98,109.99,200
190,110.02,110.02,109.93,109.96,1700
191,110,110.02,110,110.02,799
192,109.98,110.01,109.96,109.99,1500
193,109.97,109.97,109.97,109.97,100
194,109.97,109.97,109.97,109.97,100
195,109.97,109.99,109.97,109.99,1000
196,109.94,109.97,109.94,109.97,1211
197,109.95,109.95,109.93,109.93,500
198,109.92,109.9425,109.92,109.94,701
199,109.93,109.93,109.9,109.9,1742
200,109.93,110.05,109.93,109.94,3063
201,109.9,109.96,109.9,109.92,800
202,109.91,109.91,109.91,109.91,100
203,109.965,109.98,109.94,109.96,700
204,109.9817,110.01,109.98,109.98,850
205,109.96,109.96,109.96,109.96,200
206,109.94,109.955,109.94,109.955,1300
207,109.86,109.94,109.86,109.94,3100
208,109.85,109.87,109.81,109.87,1600
209,109.9,109.9,109.81,109.84,1672
210,109.82,109.85,109.82,109.85,900
211,109.89,109.89,109.84,109.85,800
212,109.905,109.905,109.88,109.88,200
213,109.9099,109.9099,109.88,109.88,500
214,109.83,109.89,109.83,109.89,1100
215,109.84,109.84,109.84,109.84,200
216,109.82,109.86,109.82,109.83,1100
217,109.78,109.79,109.78,109.79,400
218,109.715,109.75,109.71,109.74,5600
219,109.735,109.74,109.71,109.72,900
220,109.75,109.75,109.75,109.75,200
221,109.67,109.74,109.67,109.74,1031
222,109.64,109.64,109.64,109.64,200
223,109.6,109.66,109.6,109.61,400
224,109.54,109.58,109.54,109.5753,1250
225,109.56,109.56,109.5,109.5,2128
226,109.54,109.56,109.52,109.56,1700
227,109.56,109.56,109.52,109.52,700
228,109.54,109.56,109.53,109.56,800
229,109.56,109.56,109.52,109.55,2200
230,109.56,109.56,109.53,109.55,1400
231,109.55,109.56,109.52,109.54,2272
232,109.5,109.56,109.5,109.56,2400
233,109.5,109.55,109.5,109.55,700
234,109.441,109.49,109.441,109.49,500
235,109.489,109.49,109.44,109.48,2850
236,109.47,109.49,109.44,109.49,4100
237,109.43,109.48,109.43,109.48,2200
238,109.39,109.42,109.37,109.42,3400
239,109.31,109.42,109.31,109.4,2200
240,109.3,109.31,109.27,109.31,1800
241,109.37,109.37,109.29,109.29,900
242,109.36,109.4,109.35,109.39,1246
243,109.49,109.49,109.33,109.33,900
244,109.56,109.57,109.51,109.52,1077
245,109.63,109.63,109.59,109.59,400
246,109.52,109.58,109.52,109.58,1785
247,109.51,109.51,109.46,109.51,825
248,109.5,109.5,109.45,109.45,800
249,109.48,109.48,109.47,109.48,400
250,109.47,109.48,109.46,109.46,400
251,109.53,109.53,109.47,109.47,700
252,109.49,109.49,109.47,109.49,500
253,109.49,109.49,109.49,109.49,400
254,109.38,109.47,109.38,109.46,1600
255,109.33,109.41,109.33,109.39,500
256,109.38,109.38,109.335,109.335,619
257,109.41,109.41,109.34,109.38,2117
258,109.34,109.3932,109.34,109.3932,1000
259,109.34,109.35,109.34,109.35,300
260,109.38,109.3996,109.36,109.37,2084
261,109.41,109.43,109.39,109.39,1600
262,109.48,109.48,109.44,109.44,800
263,109.51,109.56,109.47,109.47,1000
264,109.54,109.55,109.51,109.54,400
265,109.58,109.59,109.53,109.53,1433
266,109.58,109.58,109.52,109.54,1300
267,109.61,109.61,109.52,109.6,1600
268,109.57,109.57,109.57,109.57,100
269,109.635,109.65,109.54,109.57,2600
270,109.59,109.61,109.56,109.61,1799
271,109.5564,109.61,109.5564,109.61,980
272,109.58,109.59,109.53,109.53,2196
273,109.58,109.58,109.539,109.56,2044
274,109.58,109.58,109.56,109.57,400
275,109.59,109.59,109.51,109.55,2300
276,109.62,109.6353,109.6,109.6,640
277,109.68,109.68,109.63,109.63,565
278,109.67,109.6874,109.67,109.6874,1514
279,109.66,109.67,109.66,109.67,400
280,109.59,109.62,109.58,109.62,500
281,109.55,109.615,109.55,109.615,878
282,109.5901,109.61,109.575,109.58,2014
283,109.59,109.62,109.54,109.62,1700
284,109.63,109.63,109.59,109.59,600
285,109.64,109.64,109.64,109.64,100
286,109.6025,109.67,109.58,109.66,1400
287,109.6,109.61,109.6,109.61,200
288,109.6723,109.6723,109.62,109.63,2112
289,109.675,109.675,109.66,109.66,300
290,109.71,109.71,109.63,109.63,1125
291,109.64,109.685,109.64,109.65,1000
292,109.64,109.6596,109.64,109.6596,917
293,109.63,109.66,109.63,109.64,1269
294,109.65,109.66,109.62,109.64,1291
295,109.65,109.65,109.65,109.65,100
296,109.7,109.7,109.66,109.66,800
297,109.75,109.78,109.72,109.78,700
298,109.724,109.745,109.71,109.745,346
299,109.73,109.75,109.71,109.725,2444
300,109.75,109.75,109.75,109.75,100
301,109.73,109.76,109.73,109.76,1600
302,109.73,109.7499,109.72,109.73,1153
303,109.71,109.71,109.71,109.71,300
304,109.73,109.7301,109.715,109.715,1611
305,109.7322,109.74,109.71,109.74,2554
306,109.7137,109.74,109.71,109.74,1885
307,109.7214,109.7399,109.7,109.71,2548
308,109.7,109.74,109.68,109.74,900
309,109.67,109.67,109.67,109.67,100
310,109.75,109.75,109.7,109.7,1200
311,109.7302,109.7302,109.73,109.73,2100
312,109.77,109.77,109.73,109.73,1600
314,109.85,109.85,109.755,109.755,1765
315,109.79,109.865,109.79,109.865,1300
316,109.77,109.77,109.77,109.77,100
317,109.75,109.77,109.75,109.77,829
318,109.69,109.74,109.69,109.74,606
319,109.7,109.72,109.7,109.72,1106
320,109.67,109.67,109.67,109.67,100
321,109.69,109.7,109.65,109.67,2605
322,109.7,109.729,109.69,109.69,1386
323,109.69,109.7,109.69,109.7,200
324,109.69,109.69,109.69,109.69,200
325,109.76,109.76,109.72,109.72,2536
326,109.72,109.74,109.72,109.74,500
327,109.7,109.71,109.7,109.71,1370
328,109.71,109.74,109.71,109.72,1200
329,109.71,109.71,109.68,109.7,600
330,109.73,109.73,109.72,109.72,800
331,109.81,109.83,109.7265,109.74,2734
332,109.85,109.85,109.77,109.79,1700
333,109.8,109.84,109.8,109.84,1300
334,109.92,109.92,109.82,109.82,1100
335,109.89,109.9,109.86,109.9,1400
336,109.9,109.92,109.885,109.885,1528
337,109.9,109.9,109.88,109.9,1400
338,109.91,109.93,109.9,109.9,2100
339,109.94,109.96,109.91,109.91,1500
340,109.91,109.93,109.9,109.92,600
341,109.86,109.92,109.84,109.92,2559
342,109.83,109.84,109.82,109.82,900
343,109.83,109.85,109.82,109.85,900
344,109.83,109.83,109.82,109.82,300
345,109.82,109.82,109.81,109.82,2100
346,109.85,109.87,109.83,109.83,1207
347,109.84,109.85,109.83,109.85,800
348,109.82,109.83,109.82,109.83,1100
349,109.83,109.86,109.83,109.83,2091
350,109.86,109.88,109.84,109.84,1266
351,109.86,109.86,109.86,109.86,100
352,109.82,109.85,109.82,109.85,2050
353,109.835,109.835,109.8,109.8,1400
355,109.795,109.85,109.7721,109.85,1230
356,109.75,109.77,109.75,109.77,400
357,109.75,109.75,109.75,109.75,100
358,109.71,109.755,109.69,109.755,2105
359,109.64,109.72,109.64,109.685,2222
360,109.69,109.71,109.66,109.66,3757
361,109.7,109.7,109.67,109.67,1071
362,109.73,109.75,109.72,109.73,1600
363,109.76,109.76,109.7382,109.74,1614
364,109.8,109.82,109.74,109.76,1400
365,109.81,109.82,109.81,109.82,1000
366,109.8,109.82,109.8,109.82,850
367,109.78,109.82,109.77,109.82,4893
368,109.78,109.79,109.77,109.79,1800
369,109.82,109.82,109.79,109.79,2400
370,109.85,109.86,109.81,109.83,5415
371,109.84,109.85,109.8001,109.84,9341
372,109.83,109.85,109.81,109.85,3100
373,109.82,109.84,109.82,109.84,1900
374,109.88,109.88,109.83,109.84,7617
375,109.86,109.89,109.84,109.86,12070
376,109.81,109.85,109.81,109.84,6314
377,109.75,109.81,109.75,109.81,6153
378,109.73,109.75,109.72,109.74,2800
379,109.735,109.74,109.72,109.73,2729
380,109.71,109.74,109.71,109.74,4392
381,109.75,109.75,109.71,109.72,3600
382,109.76,109.76,109.72,109.74,3298
383,109.77,109.77,109.72,109.75,3054
384,109.75,109.78,109.75,109.77,1940
385,109.72,109.735,109.7,109.735,4271
386,109.72,109.74,109.69,109.73,5477
387,109.69,109.72,109.69,109.71,4870
388,109.68,109.71,109.66,109.68,8401
389,109.655,109.71,109.65,109.69,7020
390,109.66,109.68,109.62,109.65,26400
