PPG,PPG Industries,Materials,8,Specialty Chemicals,26304567354,1457290
a1502717460,101.66,101.71,101.2,101.71,14156
1,101.98,101.995,101.645,101.645,1859
2,102.03,102.075,101.91,101.99,1950
3,102.09,102.09,102.02,102.04,1110
4,102.12,102.19,102.09,102.09,744
5,101.99,102.2,101.96,102.2,3314
6,101.92,101.98,101.89,101.98,440
7,101.76,101.91,101.7,101.91,2176
8,101.72,101.74,101.67,101.74,1116
9,101.79,101.86,101.77,101.81,2100
10,101.84,101.86,101.77,101.86,3051
11,101.84,101.88,101.84,101.87,1700
12,102.02,102.02,101.8615,101.8615,2299
13,102.06,102.09,102.02,102.02,1572
14,102.1,102.18,102.07,102.07,3731
15,102.19,102.19,102.1,102.11,1700
16,102.32,102.32,102.24,102.25,700
17,102.47,102.49,102.31,102.32,8997
18,102.47,102.5,102.39,102.46,8945
19,102.32,102.47,102.3,102.47,1900
20,102.18,102.35,102.17,102.32,2600
21,102.2,102.21,102.2,102.2,500
22,102.22,102.25,102.19,102.23,1680
23,102.24,102.24,102.2,102.22,800
24,102.15,102.21,102.15,102.21,1200
25,102.195,102.23,102.15,102.15,2100
26,102.12,102.21,102.12,102.19,2218
27,102.1,102.1,102.065,102.065,600
28,102.1,102.11,102.1,102.1,1020
29,102.03,102.05,102.03,102.05,1689
30,102.04,102.04,101.99,102.0046,1357
31,102.04,102.06,102.02,102.06,1493
32,102.065,102.1,102.045,102.045,1920
33,102.1,102.1,102.02,102.065,3350
34,102.08,102.08,102.08,102.08,200
35,102.06,102.06,102.04,102.06,897
36,102.09,102.09,102.07,102.08,900
37,102.14,102.14,102.08,102.09,2100
38,102.19,102.21,102.15,102.15,1288
39,102.1572,102.2,102.1572,102.19,2190
40,102.2,102.21,102.1651,102.1651,3700
41,102.2199,102.2199,102.2,102.21,1566
42,102.2,102.2,102.18,102.19,1502
43,102.195,102.2,102.19,102.2,940
44,102.19,102.19,102.18,102.1886,2766
45,102.19,102.2,102.16,102.2,2400
46,102.1675,102.175,102.1675,102.175,200
47,102.12,102.17,102.12,102.16,2875
48,102.1299,102.135,102.1,102.135,650
49,102.07,102.13,102.07,102.1,5716
50,102.13,102.14,102.1,102.1,8675
51,102.11,102.13,102.11,102.115,400
52,102.095,102.11,102.09,102.11,2198
53,102.07,102.095,102.07,102.095,1800
54,102.06,102.0786,102.06,102.0786,377
55,102.13,102.135,102.06,102.06,7978
56,102.09,102.14,102.09,102.13,6655
57,102.0601,102.0601,102.0601,102.0601,100
58,102.09,102.09,102.06,102.06,3611
59,102.07,102.07,102.07,102.07,500
60,102.12,102.13,102.06,102.07,3304
61,102.085,102.13,102.085,102.13,3034
62,102.1,102.11,102.07,102.07,2125
63,102.1,102.11,102.09,102.1053,2585
64,102.107,102.11,102.09,102.1,2848
65,102.06,102.11,102.05,102.1092,2600
66,102.06,102.06,102.04,102.04,1659
67,102.1,102.1,102.08,102.08,700
68,102.09,102.09,102.07,102.08,2009
69,102.09,102.1,102.075,102.1,3671
70,102.04,102.08,102.04,102.08,2140
71,102.0261,102.04,102.0261,102.04,1125
72,101.98,102.01,101.98,102.01,2771
73,102.01,102.01,101.99,102,2147
74,101.99,102.04,101.99,102.02,6900
75,102.02,102.02,101.98,101.98,1303
76,102.05,102.07,102.035,102.035,1200
77,102.13,102.13,102.07,102.07,2900
78,102.125,102.13,102.12,102.13,3225
79,102.1375,102.17,102.105,102.13,13018
80,102.1375,102.145,102.13,102.145,800
81,102.1201,102.1201,102.12,102.12,250
82,102.145,102.16,102.135,102.15,1200
83,102.24,102.24,102.155,102.16,6150
84,102.3596,102.3596,102.24,102.24,1383
85,102.43,102.43,102.36,102.36,500
86,102.44,102.45,102.41,102.45,8472
87,102.39,102.445,102.39,102.44,3632
88,102.38,102.4,102.38,102.4,300
89,102.4,102.4,102.38,102.38,2544
90,102.4,102.4,102.37,102.38,2400
91,102.43,102.43,102.4032,102.41,2700
92,102.46,102.46,102.42,102.42,1200
93,102.48,102.5,102.46,102.46,7357
94,102.48,102.48,102.455,102.48,4110
95,102.49,102.49,102.47,102.48,1900
96,102.505,102.525,102.5,102.5,3371
97,102.51,102.53,102.51,102.51,3364
98,102.485,102.52,102.485,102.51,3000
99,102.495,102.5,102.485,102.49,1538
100,102.56,102.56,102.5,102.5,3872
101,102.58,102.6,102.55,102.55,2173
102,102.54,102.5701,102.54,102.5701,3967
103,102.51,102.55,102.51,102.55,2049
104,102.49,102.5,102.47,102.47,1110
105,102.45,102.47,102.45,102.46,800
106,102.4585,102.46,102.44,102.46,918
107,102.45,102.46,102.43,102.43,1900
108,102.43,102.43,102.43,102.43,100
109,102.43,102.435,102.42,102.435,2400
110,102.48,102.48,102.44,102.44,2000
111,102.45,102.47,102.45,102.46,900
112,102.455,102.455,102.455,102.455,100
113,102.49,102.49,102.455,102.455,1300
114,102.5,102.5,102.48,102.48,655
115,102.5,102.5,102.49,102.5,300
116,102.47,102.48,102.47,102.48,3155
117,102.495,102.5,102.49,102.49,3410
118,102.49,102.5,102.48,102.5,3900
119,102.49,102.49,102.48,102.49,780
120,102.5,102.5,102.48,102.5,1833
122,102.47,102.495,102.47,102.495,2100
123,102.47,102.47,102.47,102.47,500
124,102.45,102.465,102.45,102.465,1200
125,102.41,102.44,102.41,102.44,800
126,102.4,102.41,102.39,102.41,1550
127,102.4,102.41,102.4,102.4,1040
128,102.3817,102.39,102.38,102.39,500
129,102.38,102.3894,102.3792,102.3894,2436
130,102.39,102.39,102.38,102.38,2307
131,102.405,102.41,102.38,102.38,1400
132,102.405,102.41,102.4,102.4,400
133,102.41,102.41,102.4,102.4,800
134,102.38,102.41,102.38,102.41,3560
135,102.4273,102.43,102.39,102.39,2219
136,102.46,102.46,102.43,102.43,2040
137,102.47,102.47,102.46,102.46,300
138,102.48,102.49,102.47,102.47,1843
139,102.55,102.55,102.49,102.49,18961
141,102.65,102.65,102.58,102.58,3939
142,102.65,102.66,102.63,102.66,5844
143,102.53,102.64,102.53,102.64,4560
144,102.54,102.54,102.54,102.54,397
145,102.54,102.54,102.54,102.54,100
146,102.58,102.58,102.55,102.55,1000
147,102.6,102.6,102.57,102.57,1451
148,102.62,102.62,102.605,102.605,300
149,102.61,102.62,102.61,102.61,1661
150,102.6,102.62,102.6,102.62,500
151,102.62,102.62,102.62,102.62,100
152,102.61,102.629,102.61,102.61,1218
153,102.645,102.65,102.61,102.61,3158
154,102.67,102.69,102.645,102.65,5704
155,102.7,102.7,102.68,102.68,1200
156,102.73,102.73,102.7,102.7,800
157,102.71,102.73,102.71,102.73,2192
158,102.73,102.73,102.72,102.72,3105
159,102.72,102.73,102.72,102.73,1800
160,102.76,102.76,102.72,102.72,14800
161,102.74,102.74,102.72,102.74,500
162,102.75,102.75,102.75,102.75,600
163,102.6,102.73,102.6,102.73,5371
164,102.58,102.6,102.58,102.6,200
165,102.61,102.61,102.58,102.58,500
167,102.56,102.5764,102.56,102.57,800
168,102.52,102.54,102.52,102.53,600
169,102.58,102.58,102.49,102.51,25709
170,102.5899,102.6,102.58,102.58,500
171,102.6,102.6,102.6,102.6,100
172,102.63,102.63,102.58,102.58,1910
173,102.63,102.64,102.63,102.64,200
174,102.65,102.65,102.64,102.64,500
175,102.74,102.74,102.65,102.67,2700
176,102.72,102.75,102.72,102.75,300
177,102.8,102.8,102.74,102.75,4301
178,102.76,102.8,102.76,102.8,2708
179,102.79,102.79,102.77,102.77,3300
180,102.76,102.78,102.75,102.77,6245
181,102.76,102.77,102.75,102.77,1800
182,102.72,102.73,102.72,102.73,300
183,102.75,102.75,102.75,102.75,100
184,102.76,102.76,102.73,102.73,1402
185,102.75,102.76,102.73,102.75,900
186,102.76,102.76,102.75,102.75,200
187,102.76,102.76,102.76,102.76,200
188,102.72,102.76,102.72,102.76,2745
189,102.75,102.75,102.71,102.71,1100
190,102.75,102.76,102.75,102.76,300
191,102.72,102.74,102.71,102.74,5137
192,102.71,102.72,102.7,102.71,2600
193,102.72,102.72,102.71,102.71,700
194,102.72,102.72,102.71,102.72,666
195,102.72,102.73,102.72,102.72,600
196,102.74,102.7467,102.72,102.73,1989
197,102.75,102.75,102.73,102.73,1200
198,102.72,102.74,102.72,102.74,3150
199,102.73,102.73,102.72,102.72,1600
200,102.74,102.74,102.73,102.73,7400
201,102.75,102.75,102.75,102.75,100
202,102.75,102.75,102.73,102.73,1046
203,102.73,102.75,102.72,102.72,700
204,102.76,102.76,102.74,102.74,1700
205,102.73,102.76,102.72,102.76,1000
206,102.72,102.72,102.72,102.72,370
207,102.67,102.71,102.67,102.71,900
208,102.68,102.68,102.68,102.68,100
209,102.66,102.67,102.66,102.67,1672
210,102.67,102.68,102.66,102.66,1147
211,102.69,102.69,102.69,102.69,100
212,102.64,102.67,102.64,102.67,2208
214,102.62,102.64,102.62,102.63,800
215,102.65,102.65,102.63,102.63,1089
216,102.64,102.64,102.64,102.64,100
217,102.6,102.64,102.6,102.64,3632
218,102.59,102.59,102.57,102.57,600
219,102.5868,102.6,102.5868,102.6,300
220,102.58,102.5913,102.57,102.5913,1047
221,102.61,102.61,102.59,102.59,1711
223,102.6,102.6,102.6,102.6,100
224,102.62,102.62,102.6,102.6,600
225,102.59,102.61,102.59,102.6,700
226,102.6234,102.63,102.6,102.6,1803
227,102.64,102.64,102.62,102.63,1100
228,102.63,102.63,102.62,102.63,1700
229,102.61,102.63,102.61,102.63,978
230,102.6,102.6,102.6,102.6,100
231,102.6,102.605,102.6,102.6,1300
232,102.6,102.61,102.6,102.6,1313
235,102.62,102.62,102.61,102.62,300
236,102.61,102.62,102.61,102.615,1245
238,102.6,102.605,102.59,102.605,540
239,102.58,102.59,102.58,102.59,1023
240,102.57,102.58,102.57,102.57,1617
241,102.58,102.58,102.57,102.57,900
242,102.57,102.57,102.57,102.57,200
243,102.58,102.58,102.56,102.56,440
244,102.58,102.58,102.58,102.58,200
245,102.595,102.61,102.58,102.58,1300
246,102.58,102.6,102.58,102.6,1300
247,102.59,102.59,102.59,102.59,320
248,102.59,102.61,102.59,102.6,600
249,102.6,102.61,102.6,102.61,300
250,102.57,102.59,102.57,102.59,1283
251,102.56,102.56,102.56,102.56,100
252,102.55,102.55,102.55,102.55,200
253,102.58,102.58,102.55,102.55,1609
254,102.56,102.58,102.56,102.58,400
255,102.45,102.55,102.45,102.55,3439
256,102.48,102.5,102.47,102.47,1200
257,102.4832,102.4832,102.48,102.48,343
259,102.4768,102.48,102.47,102.47,1400
260,102.47,102.47,102.47,102.47,100
261,102.48,102.49,102.48,102.48,1115
262,102.48,102.49,102.48,102.49,300
263,102.48,102.49,102.46,102.49,805
265,102.49,102.49,102.49,102.49,402
266,102.54,102.55,102.5,102.51,2252
267,102.54,102.56,102.54,102.54,1500
269,102.57,102.57,102.57,102.57,100
270,102.5872,102.5872,102.55,102.57,2369
271,102.5889,102.59,102.5728,102.58,2074
272,102.6,102.6,102.6,102.6,200
273,102.6,102.6,102.58,102.6,1761
274,102.61,102.62,102.61,102.61,809
275,102.65,102.65,102.62,102.62,1502
276,102.65,102.66,102.64,102.64,1400
277,102.64,102.65,102.63,102.64,2057
278,102.62,102.64,102.62,102.64,1132
279,102.62,102.62,102.62,102.62,300
280,102.59,102.62,102.59,102.62,1550
281,102.62,102.62,102.59,102.59,1654
282,102.6,102.62,102.59,102.62,1600
283,102.6,102.62,102.6,102.62,441
284,102.59,102.59,102.59,102.59,300
285,102.595,102.595,102.57,102.57,1000
287,102.61,102.61,102.592,102.61,1578
288,102.58,102.6099,102.58,102.6034,8903
289,102.5875,102.5875,102.575,102.58,1554
290,102.6,102.6,102.59,102.59,400
291,102.578,102.58,102.57,102.58,1989
292,102.61,102.62,102.58,102.58,4115
293,102.6,102.61,102.6,102.61,1241
294,102.59,102.6,102.59,102.6,800
295,102.585,102.59,102.585,102.59,1956
296,102.5835,102.5835,102.5835,102.5835,280
297,102.54,102.59,102.54,102.58,3555
298,102.53,102.53,102.53,102.53,100
299,102.53,102.53,102.53,102.53,670
300,102.51,102.52,102.51,102.52,300
301,102.46,102.51,102.46,102.51,2573
302,102.49,102.49,102.46,102.46,2669
303,102.51,102.53,102.49,102.51,3001
304,102.51,102.52,102.51,102.52,200
305,102.51,102.51,102.51,102.51,100
306,102.56,102.56,102.525,102.53,2117
307,102.56,102.56,102.55,102.56,600
308,102.56,102.57,102.55,102.56,400
309,102.58,102.58,102.565,102.565,2368
310,102.55,102.57,102.55,102.57,1812
311,102.55,102.55,102.55,102.55,100
312,102.54,102.565,102.54,102.56,2373
313,102.56,102.56,102.54,102.54,1000
314,102.57,102.57,102.56,102.56,1014
315,102.54,102.57,102.52,102.55,5237
316,102.58,102.58,102.54,102.55,9597
317,102.59,102.61,102.58,102.58,2150
318,102.61,102.61,102.5978,102.5978,1100
319,102.6,102.62,102.57,102.61,6722
320,102.56,102.6,102.53,102.6,9533
321,102.53,102.55,102.53,102.55,2141
322,102.54,102.54,102.53,102.54,1400
323,102.59,102.59,102.53,102.54,2318
324,102.62,102.62,102.598,102.598,733
325,102.63,102.63,102.61,102.62,1507
326,102.67,102.68,102.63,102.63,1800
327,102.666,102.69,102.666,102.675,1450
328,102.67,102.69,102.65,102.67,3801
329,102.68,102.68,102.66,102.66,500
330,102.68,102.68,102.67,102.67,4626
331,102.68,102.68,102.6764,102.6764,295
332,102.67,102.68,102.67,102.68,3762
333,102.7009,102.71,102.67,102.67,3000
334,102.71,102.71,102.69,102.7,1600
335,102.73,102.74,102.72,102.72,1100
336,102.75,102.75,102.72,102.72,2139
337,102.741,102.75,102.74,102.74,1004
338,102.76,102.76,102.74,102.75,1800
339,102.76,102.76,102.75,102.75,4623
340,102.69,102.77,102.69,102.755,5060
341,102.6243,102.64,102.6243,102.64,702
342,102.62,102.63,102.61,102.63,2100
343,102.615,102.62,102.61,102.62,947
344,102.63,102.63,102.6,102.61,2151
345,102.58,102.62,102.58,102.62,1300
346,102.59,102.6,102.58,102.58,1339
347,102.59,102.6,102.59,102.59,1159
348,102.58,102.61,102.58,102.59,1939
349,102.59,102.59,102.58,102.59,545
350,102.59,102.6,102.58,102.59,2982
351,102.57,102.59,102.57,102.59,824
352,102.6,102.6043,102.58,102.58,2037
353,102.59,102.6,102.59,102.6,500
354,102.61,102.63,102.59,102.6,2496
355,102.63,102.64,102.63,102.63,1500
356,102.635,102.64,102.635,102.64,700
357,102.64,102.64,102.63,102.635,1645
358,102.6,102.64,102.6,102.64,3700
359,102.61,102.62,102.6,102.6,2044
360,102.6,102.62,102.6,102.62,1145
361,102.63,102.63,102.605,102.605,2627
362,102.6,102.63,102.6,102.63,2826
363,102.61,102.61,102.6,102.605,3872
364,102.61,102.6199,102.605,102.61,2095
365,102.61,102.61,102.6,102.61,1758
366,102.62,102.62,102.61,102.61,3314
367,102.62,102.62,102.62,102.62,300
368,102.64,102.64,102.63,102.63,3366
369,102.66,102.66,102.635,102.635,3844
370,102.64,102.66,102.632,102.65,7042
371,102.63,102.64,102.63,102.63,2122
372,102.62,102.635,102.61,102.635,6413
373,102.61,102.615,102.61,102.615,2194
374,102.6,102.62,102.6,102.61,19189
375,102.645,102.66,102.61,102.61,7091
376,102.65,102.65,102.64,102.65,2300
377,102.66,102.66,102.65,102.65,2320
378,102.63,102.67,102.62,102.66,8788
379,102.63,102.64,102.62,102.62,4624
380,102.6,102.63,102.56,102.63,12121
381,102.67,102.68,102.6,102.6,8589
382,102.69,102.69,102.66,102.665,2514
383,102.71,102.74,102.69,102.69,8961
384,102.7,102.73,102.6901,102.7001,6048
385,102.695,102.7,102.69,102.7,4404
386,102.72,102.72,102.68,102.7,10074
387,102.665,102.72,102.65,102.715,7985
388,102.63,102.68,102.63,102.66,10829
389,102.57,102.66,102.56,102.6399,16880
