EOG,EOG Resources,Energy,3,Oil & Gas Exploration & Production,53331449699,3412247
a1492608660,94.97,95.08,94.81,94.93,23333
1,95.13,95.42,95.01,95.085,6429
2,95,95.02,95,95.02,1385
3,95.135,95.22,94.82,94.92,5188
4,95.0945,95.205,95.05,95.06,1818
5,94.9,95.22,94.9,95.21,3200
6,94.97,95,94.855,94.99,1300
7,94.9,94.98,94.9,94.98,1000
8,95.03,95.03,94.825,94.9,3300
9,94.98,94.985,94.93,94.985,500
10,95.03,95.05,94.93,94.95,3158
11,95.02,95.02,94.99,95.02,1240
12,95.04,95.04,94.99,95.03,740
13,95.0197,95.0197,95,95,653
14,95.01,95.0201,94.98,95.0201,750
15,95,95.0899,95,95.0899,1300
16,94.93,95,94.89,94.97,4373
17,95,95.04,94.935,94.95,4603
18,95.09,95.11,95.06,95.06,410
19,95.02,95.0913,95,95.06,2590
20,95.14,95.14,95,95.05,3912
21,95.09,95.22,95.09,95.17,1100
22,95.135,95.14,95.08,95.1,1467
23,95.16,95.16,95.07,95.11,2300
24,95.2,95.2,95.2,95.2,174
25,95.29,95.3,95.21,95.22,1968
26,95.33,95.36,95.27,95.3,2636
27,95.22,95.28,95.22,95.28,2991
28,95.15,95.21,95.15,95.2,600
29,95.14,95.2,95.14,95.2,2750
30,95.23,95.28,95.14,95.14,3237
31,95.22,95.22,95.15,95.19,614
32,95.25,95.2501,95.185,95.185,1811
33,95.2175,95.24,95.2175,95.24,700
34,95.15,95.2,95.15,95.2,300
35,95.1916,95.2,95.13,95.2,540
36,95.16,95.17,95.13,95.17,2843
37,95.08,95.12,95.08,95.12,4157
38,95.1,95.13,95.06,95.08,3776
39,95.0663,95.07,95.05,95.07,651
40,95.07,95.07,95.02,95.06,1134
41,95.0317,95.07,95.0317,95.07,800
42,95.09,95.09,95.01,95.02,2400
43,95.12,95.14,95.09,95.1,3252
44,95.08,95.13,95.06,95.13,1201
45,95.08,95.13,95.08,95.09,800
46,95.1,95.1,95.04,95.07,2600
47,95.11,95.11,95,95.07,6788
48,95.18,95.19,95.11,95.12,2226
49,95.15,95.18,95.15,95.17,1750
50,95.1,95.15,95.07,95.13,5325
51,95.095,95.14,95.09,95.1,2793
52,95.01,95.08,94.97,95.05,7527
53,95.05,95.06,95.03,95.05,2390
54,95.03,95.11,95.03,95.08,6322
55,95.06,95.08,95.03,95.03,1040
56,94.985,95.02,94.965,95.02,8951
57,94.95,94.985,94.91,94.915,5400
58,94.9449,94.98,94.895,94.93,5059
59,95.18,95.18,94.96,94.96,2954
60,95.16,95.32,95.05,95.23,6968
61,95.08,95.26,95.08,95.16,6413
62,95.01,95.065,94.94,95.05,4100
63,95.02,95.04,94.95,94.96,3218
64,95.03,95.08,95.03,95.08,500
65,95.1875,95.21,95.07,95.07,4890
66,95.11,95.17,95.11,95.17,6948
67,95.0847,95.15,95.07,95.12,6805
68,95.05,95.12,95.033,95.08,10815
69,95.185,95.19,95.03,95.05,17912
70,95.16,95.19,95.1,95.17,15372
71,95.095,95.21,95.07,95.16,40852
72,95.02,95.16,95,95.1,16783
73,94.88,95.03,94.84,95.02,8190
74,94.77,94.86,94.77,94.86,5675
75,94.8,94.8,94.75,94.79,2400
76,94.84,94.88,94.83,94.83,1600
77,94.89,94.9,94.82,94.84,1500
78,94.86,94.89,94.85,94.89,1100
79,94.63,94.83,94.63,94.83,3211
80,94.74,94.74,94.6201,94.65,2302
81,94.81,94.86,94.7996,94.7996,1500
82,94.83,94.83,94.81,94.81,1400
83,94.86,94.86,94.79,94.79,1994
84,94.9,94.93,94.87,94.88,1500
85,94.85,94.91,94.84,94.91,1100
86,94.81,94.82,94.7786,94.82,2144
87,94.78,94.79,94.71,94.79,4300
89,94.7,94.8,94.68,94.76,3958
90,94.7377,94.8,94.68,94.71,3837
91,94.72,94.72,94.69,94.71,4200
92,94.78,94.83,94.77,94.77,3516
93,94.72,94.76,94.72,94.76,7600
94,94.71,94.76,94.71,94.71,5398
95,94.73,94.73,94.7,94.7,3200
96,94.82,94.82,94.73,94.7465,5039
97,94.82,94.83,94.79,94.83,1405
98,94.86,94.86,94.82,94.86,1350
99,94.73,94.84,94.73,94.83,3508
100,94.68,94.71,94.65,94.71,1729
101,94.7228,94.7526,94.7042,94.7042,2257
102,94.69,94.73,94.69,94.72,1024
103,94.71,94.71,94.65,94.6821,3195
104,94.69,94.74,94.69,94.73,1200
105,94.62,94.7,94.62,94.69,1055
106,94.69,94.69,94.57,94.59,2600
107,94.64,94.665,94.63,94.65,1001
108,94.54,94.64,94.54,94.64,2900
109,94.425,94.55,94.24,94.53,17545
110,94.45,94.46,94.41,94.41,6000
111,94.504,94.504,94.42,94.42,4999
112,94.44,94.51,94.42,94.51,2300
113,94.5,94.52,94.42,94.431,2900
114,94.6,94.6,94.47,94.47,2100
115,94.6,94.64,94.58,94.64,1350
116,94.53,94.6,94.53,94.58,4567
117,94.44,94.5,94.43,94.49,10461
118,94.48,94.5,94.44,94.46,2333
119,94.43,94.51,94.35,94.44,8568
120,94.39,94.45,94.37,94.41,16228
121,94.48,94.5,94.44,94.44,1520
122,94.485,94.51,94.44,94.47,1802
123,94.46,94.46,94.46,94.46,601
124,94.4,94.44,94.39,94.44,950
125,94.31,94.4182,94.31,94.401,4626
126,94.33,94.35,94.23,94.28,3872
127,94.31,94.34,94.31,94.34,1400
128,94.25,94.34,94.25,94.34,1699
129,94.27,94.3,94.22,94.28,1452
130,94.2,94.26,94.2,94.26,3269
131,94.25,94.27,94.21,94.21,2200
132,94.2996,94.2996,94.24,94.25,1443
133,94.317,94.317,94.26,94.26,3267
134,94.31,94.37,94.31,94.34,1400
135,94.27,94.31,94.27,94.31,240
136,94.17,94.27,94.17,94.27,1745
137,94.25,94.25,94.17,94.17,2631
138,94.16,94.25,94.16,94.25,2996
139,94.22,94.23,94.1686,94.1728,2430
140,94.16,94.221,94.16,94.221,1725
141,94.12,94.1505,94.1,94.13,1927
142,94.0299,94.11,94,94.11,8289
143,94.0289,94.1,94,94.01,16316
144,93.98,94.05,93.974,94.02,15035
145,93.91,93.97,93.86,93.97,7930
146,93.85,93.97,93.85,93.91,7092
147,93.9132,93.94,93.8,93.83,3805
148,93.8,93.92,93.8,93.92,2367
149,93.88,93.88,93.73,93.76,5011
150,93.84,93.87,93.83,93.87,5355
151,93.9,93.92,93.82,93.84,2388
152,93.95,93.95,93.85,93.86,5796
153,93.95,93.97,93.9,93.9001,2450
154,93.95,94.02,93.92,93.99,7347
155,93.87,93.9102,93.83,93.91,4811
156,93.79,93.87,93.781,93.87,4136
157,93.81,93.85,93.78,93.792,1700
158,93.84,93.84,93.7803,93.8,4205
159,93.78,93.86,93.75,93.83,4488
160,93.865,93.91,93.76,93.78,7276
161,93.935,93.97,93.85,93.89,4844
162,94.06,94.075,93.87,93.95,18456
163,94,94.09,93.9,94.09,34730
164,93.895,94.025,93.89,93.991,9100
165,93.85,93.885,93.85,93.87,2306
166,93.775,93.93,93.76,93.855,9123
167,93.815,93.83,93.77,93.79,6389
168,93.79,93.84,93.76,93.8,11165
169,93.74,93.81,93.74,93.78,4300
170,93.71,93.77,93.7,93.77,4299
171,93.93,93.93,93.72,93.72,8362
172,93.885,93.91,93.81,93.91,6200
173,93.91,93.91,93.89,93.89,600
174,93.855,93.89,93.85,93.89,1198
175,93.86,93.88,93.855,93.855,700
176,93.9175,93.93,93.86,93.86,7351
177,93.86,93.96,93.86,93.91,11612
178,93.87,93.9,93.82,93.86,8302
179,93.89,93.905,93.865,93.8675,5256
180,93.92,93.92,93.88,93.88,1789
181,93.955,93.955,93.92,93.92,1400
182,94,94.01,93.93,93.93,7531
183,94.02,94.02,93.98,93.99,1148
184,93.99,94.04,93.99,94.04,1300
185,94.01,94.03,93.985,94.02,5000
186,94,94.02,94,94,1385
187,93.88,93.99,93.88,93.99,10850
188,93.95,93.96,93.91,93.91,5167
189,93.98,94.01,93.97,93.97,2640
190,93.994,94,93.98,93.9899,2049
191,93.94,93.986,93.94,93.98,7000
192,93.9702,93.99,93.96,93.96,2701
193,93.95,93.96,93.918,93.95,4248
194,93.905,93.97,93.905,93.97,2000
195,93.885,93.91,93.885,93.89,450
196,93.86,93.9,93.86,93.87,2264
197,93.86,93.89,93.85,93.86,2303
198,93.87,93.88,93.85,93.86,4050
199,93.85,93.87,93.84,93.87,1701
200,93.82,93.8528,93.7875,93.85,8035
201,93.8101,93.85,93.81,93.84,4900
202,93.8,93.82,93.8,93.81,2022
203,93.84,93.86,93.83,93.84,4300
204,93.87,93.87,93.84,93.86,1175
205,93.87,93.9,93.87,93.88,6611
206,93.85,93.9,93.83,93.86,4676
207,93.86,93.9,93.84,93.8541,13653
208,93.865,93.865,93.865,93.865,681
209,93.86,93.885,93.86,93.88,4298
210,93.86,93.88,93.84,93.88,2628
211,93.85,93.87,93.84,93.84,4900
212,93.84,93.86,93.83,93.86,2944
213,93.77,93.81,93.76,93.81,2200
214,93.76,93.8,93.76,93.78,4000
215,93.78,93.79,93.7631,93.7631,1300
216,93.77,93.801,93.77,93.784,2544
217,93.77,93.79,93.72,93.76,6450
218,93.76,93.8,93.75,93.76,8820
219,93.75,93.77,93.74,93.74,1400
220,93.7,93.76,93.7,93.74,3700
221,93.63,93.75,93.63,93.7,6988
222,93.63,93.64,93.61,93.63,2411
223,93.64,93.68,93.61,93.61,7513
224,93.63,93.67,93.62,93.64,2272
225,93.665,93.67,93.61,93.61,4593
226,93.64,93.67,93.64,93.65,1658
227,93.635,93.65,93.63,93.64,3600
228,93.7,93.71,93.61,93.62,4098
229,93.68,93.7,93.6586,93.69,4899
230,93.67,93.67,93.61,93.67,5245
231,93.64,93.66,93.64,93.66,1300
232,93.71,93.73,93.64,93.64,4690
233,93.735,93.77,93.73,93.75,3869
234,93.7152,93.76,93.7,93.76,3600
235,93.72,93.73,93.71,93.73,2421
236,93.68,93.74,93.68,93.74,7260
237,93.69,93.7,93.67,93.69,3207
238,93.74,93.7501,93.7,93.7,4389
239,93.74,93.75,93.71,93.75,2200
240,93.73,93.73,93.67,93.7,8803
241,93.77,93.77,93.68,93.73,6554
242,93.74,93.78,93.72,93.77,4500
243,93.76,93.76,93.735,93.735,400
244,93.72,93.74,93.7,93.71,5566
245,93.6775,93.77,93.65,93.71,11702
246,93.7,93.71,93.69,93.69,8771
247,93.69,93.71,93.68,93.69,8446
248,93.66,93.69,93.6401,93.69,6223
249,93.61,93.65,93.61,93.65,2300
250,93.6,93.66,93.59,93.6283,7530
251,93.6,93.6311,93.58,93.6,8463
252,93.55,93.59,93.53,93.59,4731
253,93.48,93.5301,93.46,93.5301,14151
254,93.49,93.51,93.4801,93.4801,1896
255,93.48,93.5016,93.46,93.5016,5026
256,93.49,93.49,93.46,93.47,3500
257,93.45,93.49,93.45,93.48,2500
258,93.46,93.47,93.43,93.45,2000
259,93.452,93.454,93.42,93.44,743
260,93.44,93.45,93.41,93.42,6062
261,93.43,93.485,93.43,93.46,4591
262,93.445,93.445,93.445,93.445,700
263,93.475,93.475,93.4594,93.46,2307
264,93.48,93.51,93.48,93.49,5300
265,93.48,93.519,93.46,93.519,1293
266,93.42,93.43,93.35,93.43,6208
267,93.36,93.46,93.34,93.45,4051
268,93.39,93.4,93.345,93.345,4278
269,93.4,93.42,93.34,93.37,5635
270,93.33,93.42,93.27,93.405,11830
271,93.39,93.4,93.34,93.34,2100
272,93.3,93.41,93.3,93.41,1404
273,93.28,93.31,93.2,93.29,11560
274,93.18,93.27,93.18,93.26,6461
275,93.22,93.22,93.15,93.18,9468
276,93.09,93.22,93.07,93.21,16024
277,93.17,93.2,93.13,93.14,4210
278,93.15,93.1836,93.11,93.15,9470
279,93.12,93.175,93.12,93.14,7022
280,93.175,93.175,93.105,93.12,4425
281,93.25,93.25,93.19,93.19,2160
282,93.22,93.25,93.18,93.22,6411
283,93.24,93.28,93.22,93.22,5677
284,93.22,93.31,93.22,93.28,4844
285,93.15,93.23,93.15,93.2288,7679
286,93.07,93.14,93.07,93.14,11275
287,93.06,93.105,93.05,93.1,10989
288,93.0063,93.07,92.98,93.07,28721
289,93.01,93.04,93,93.02,10200
290,93,93.03,93,93.01,9484
291,92.955,93.03,92.93,93,7777
292,93.03,93.05,92.965,92.97,12847
293,93.035,93.04,93,93.04,10993
294,92.97,93.04,92.97,93.035,14648
295,93.02,93.05,92.98,92.98,12040
296,93.03,93.07,93.02,93.02,4474
297,93.1,93.125,93.055,93.0743,10146
298,93.15,93.1625,93.1,93.101,10708
299,93.23,93.27,93.17,93.17,4044
300,93.28,93.295,93.27,93.27,4976
301,93.28,93.36,93.25,93.29,10548
302,93.3001,93.32,93.28,93.28,3651
303,93.29,93.3,93.25,93.29,5203
304,93.26,93.2825,93.26,93.2825,625
305,93.3117,93.33,93.27,93.28,2900
306,93.39,93.43,93.3,93.315,31178
307,93.43,93.43,93.395,93.395,2164
308,93.43,93.44,93.42,93.44,2621
309,93.45,93.45,93.42,93.42,1350
310,93.48,93.5,93.45,93.45,16529
311,93.459,93.5,93.45,93.47,5442
312,93.37,93.43,93.37,93.43,4490
313,93.34,93.36,93.33,93.33,2499
314,93.33,93.37,93.32,93.36,3020
315,93.3481,93.36,93.33,93.33,4152
316,93.31,93.33,93.3,93.33,2400
317,93.22,93.32,93.22,93.28,2228
318,93.21,93.23,93.18,93.22,11048
319,93.22,93.25,93.18,93.22,28858
320,93.13,93.23,93.13,93.22,29594
321,93.1,93.17,93.1,93.13,14711
322,93.09,93.14,93.04,93.1,9931
323,93.09,93.12,93.06,93.1,2202
324,93.169,93.19,93.09,93.09,3849
325,93.2,93.23,93.175,93.19,6594
326,93.23,93.23,93.19,93.19,1900
327,93.21,93.23,93.21,93.22,2488
328,93.19,93.2,93.1568,93.2,6450
329,93.2,93.2,93.18,93.19,2274
330,93.15,93.19,93.13,93.19,7733
331,93.18,93.19,93.12,93.15,13403
332,93.19,93.2,93.18,93.18,3025
333,93.23,93.23,93.2,93.2,2001
334,93.27,93.28,93.24,93.24,5653
335,93.26,93.27,93.24,93.25,4530
336,93.23,93.25,93.22,93.24,6855
337,93.32,93.35,93.22,93.22,31430
338,93.31,93.3401,93.31,93.31,4599
339,93.33,93.33,93.3,93.33,6791
340,93.34,93.38,93.32,93.3389,4048
341,93.44,93.457,93.35,93.36,10445
342,93.44,93.47,93.4275,93.44,3848
343,93.51,93.51,93.45,93.45,3686
344,93.5306,93.57,93.52,93.52,5783
345,93.61,93.61,93.5203,93.5203,4192
346,93.56,93.63,93.54,93.63,14836
347,93.65,93.65,93.56,93.56,2479
348,93.65,93.65,93.55,93.65,7810
349,93.67,93.68,93.63,93.64,5121
350,93.66,93.68,93.62,93.68,6652
351,93.62,93.66,93.62,93.66,2748
352,93.62,93.64,93.6,93.62,7688
353,93.6,93.61,93.58,93.6,3025
354,93.62,93.63,93.61,93.61,1555
355,93.575,93.64,93.575,93.63,5018
356,93.56,93.59,93.54,93.57,6569
357,93.56,93.58,93.53,93.56,6610
358,93.54,93.58,93.54,93.57,3618
359,93.42,93.51,93.415,93.51,7776
360,93.44,93.46,93.4,93.42,8980
361,93.39,93.44,93.37,93.44,4748
362,93.39,93.43,93.38,93.38,12006
363,93.445,93.46,93.39,93.39,6157
364,93.42,93.47,93.41,93.46,6122
365,93.36,93.44,93.36,93.41,12701
366,93.38,93.4,93.37,93.37,5196
367,93.37,93.39,93.34,93.38,7113
368,93.31,93.38,93.27,93.37,8348
369,93.31,93.34,93.3,93.31,7875
370,93.2,93.3,93.2,93.3,10240
371,93.18,93.23,93.18,93.22,11064
372,93.06,93.18,93.06,93.18,30235
373,93.1,93.12,93.04,93.07,9373
374,92.94,93.11,92.94,93.1,11648
375,92.95,93.025,92.93,92.96,28850
376,93.02,93.03,92.95,92.96,18166
377,92.965,93.04,92.95,93.01,14107
378,92.99,93.01,92.925,92.97,19833
379,93.04,93.04,92.97,92.99,18804
380,93.03,93.04,93.01,93.03,13846
381,93.03,93.03,93.005,93.025,13572
382,93.02,93.04,93,93.03,13588
383,92.99,93.05,92.9775,93.01,17338
384,93.07,93.08,92.98,92.99,39328
385,93.18,93.18,93.07,93.07,21238
386,93.11,93.23,93.1,93.19,42483
387,93.18,93.185,93.09,93.112,42905
388,93.25,93.27,93.14,93.18,41939
389,93.28,93.35,93.245,93.25,77966
