PPG,PPG Industries,Materials,8,Specialty Chemicals,29001854249,1162956
a1500039000,112.64,112.64,112.64,112.64,7700
1,112.3661,112.3903,112.3661,112.3903,2188
3,112.47,112.67,112.32,112.67,1600
4,112.57,112.58,112.45,112.46,723
5,112.58,112.58,112.58,112.58,101
6,112.59,112.6,112.4386,112.4386,1059
7,112.55,112.57,112.55,112.57,400
9,112.58,112.58,112.58,112.58,100
13,112.63,112.65,112.63,112.65,1100
15,112.64,112.65,112.64,112.64,600
16,112.61,112.63,112.545,112.545,1506
17,112.63,112.63,112.63,112.63,200
18,112.58,112.58,112.58,112.58,200
19,112.6,112.6,112.585,112.585,1100
21,112.69,112.69,112.61,112.61,1100
22,112.7,112.7,112.67,112.69,989
23,112.7,112.7,112.69,112.7,585
24,112.75,112.75,112.71,112.71,671
25,112.68,112.74,112.68,112.72,1100
26,112.73,112.75,112.7,112.7,900
27,112.7,112.7,112.69,112.69,600
28,112.69,112.69,112.66,112.68,1286
29,112.685,112.685,112.685,112.685,100
30,112.68,112.7,112.66,112.7,1200
31,112.69,112.69,112.66,112.68,1400
32,112.66,112.66,112.65,112.65,300
33,112.66,112.66,112.65,112.65,944
34,112.69,112.7,112.64,112.64,9950
35,112.75,112.75,112.69,112.69,1800
36,112.74,112.76,112.74,112.76,300
37,112.84,112.84,112.75,112.76,1664
38,112.84,112.84,112.84,112.84,300
39,112.86,112.86,112.83,112.84,400
40,112.85,112.86,112.84,112.86,2000
41,112.85,112.85,112.85,112.85,300
42,112.88,112.88,112.84,112.86,910
43,112.89,112.91,112.89,112.9,1800
44,112.89,112.91,112.89,112.89,1800
46,112.84,112.845,112.83,112.845,700
47,112.76,112.83,112.76,112.83,3500
48,112.765,112.765,112.7501,112.765,300
49,112.79,112.79,112.77,112.78,700
50,112.77,112.79,112.77,112.79,1400
51,112.782,112.8,112.78,112.78,2756
52,112.7962,112.81,112.79,112.81,1900
53,112.8,112.811,112.795,112.795,2321
54,112.78,112.78,112.76,112.78,2800
55,112.78,112.78,112.765,112.78,800
56,112.8,112.8,112.8,112.8,100
57,112.8143,112.8143,112.8143,112.8143,110
58,112.815,112.815,112.81,112.81,668
59,112.89,112.89,112.82,112.82,1600
60,112.89,112.9,112.89,112.89,800
61,112.9,112.9,112.9,112.9,200
62,112.84,112.89,112.84,112.89,700
63,112.83,112.83,112.83,112.83,100
64,112.86,112.86,112.82,112.84,905
65,112.835,112.835,112.835,112.835,600
66,112.85,112.85,112.85,112.85,100
67,112.84,112.86,112.84,112.86,200
68,112.87,112.87,112.85,112.85,800
69,112.865,112.88,112.86,112.88,2444
70,112.865,112.865,112.865,112.865,900
71,112.865,112.865,112.865,112.865,400
72,112.865,112.865,112.865,112.865,200
73,112.9,112.9,112.87,112.87,1800
74,112.905,112.92,112.905,112.92,2300
76,112.85,112.9,112.845,112.9,1300
77,112.85,112.85,112.845,112.845,400
78,112.81,112.82,112.81,112.82,423
80,112.81,112.82,112.81,112.81,1170
81,112.81,112.81,112.805,112.805,650
82,112.83,112.83,112.815,112.815,801
83,112.83,112.83,112.83,112.83,100
84,112.8,112.82,112.8,112.82,400
85,112.78,112.78,112.78,112.78,400
86,112.73,112.73,112.73,112.73,200
87,112.75,112.75,112.75,112.75,300
88,112.76,112.76,112.74,112.75,1239
89,112.74,112.75,112.74,112.75,500
90,112.685,112.72,112.68,112.72,2811
91,112.68,112.7,112.65,112.67,4109
92,112.69,112.7,112.69,112.7,513
93,112.67,112.7,112.65,112.7,787
94,112.68,112.7,112.65,112.69,1000
95,112.69,112.69,112.69,112.69,200
96,112.7,112.7,112.66,112.6726,1900
97,112.7,112.7,112.7,112.7,100
98,112.685,112.7,112.68,112.7,1212
100,112.72,112.72,112.71,112.71,500
101,112.78,112.78,112.76,112.76,589
102,112.8,112.8,112.79,112.8,500
103,112.77,112.81,112.77,112.79,3341
104,112.74,112.75,112.69,112.75,602
105,112.75,112.76,112.71,112.72,1000
106,112.75,112.77,112.75,112.76,633
108,112.79,112.79,112.77,112.77,300
109,112.76,112.79,112.76,112.79,1000
110,112.79,112.79,112.77,112.77,400
111,112.81,112.83,112.79,112.83,900
112,112.82,112.82,112.795,112.795,1523
113,112.7903,112.81,112.7903,112.81,557
114,112.8,112.8,112.78,112.79,700
115,112.79,112.81,112.77,112.81,3050
116,112.765,112.78,112.765,112.78,400
117,112.7465,112.765,112.7465,112.765,700
118,112.77,112.77,112.755,112.755,400
119,112.78,112.78,112.76,112.76,200
120,112.72,112.77,112.72,112.77,2700
121,112.74,112.74,112.69,112.7,1400
122,112.74,112.75,112.74,112.75,400
123,112.75,112.75,112.75,112.75,200
124,112.76,112.76,112.76,112.76,100
125,112.755,112.76,112.755,112.76,400
126,112.78,112.79,112.77,112.77,1300
127,112.8,112.8,112.8,112.8,100
129,112.85,112.85,112.78,112.7999,2100
130,112.825,112.84,112.82,112.82,333
131,112.84,112.84,112.84,112.84,400
132,112.83,112.83,112.83,112.83,100
133,112.855,112.855,112.855,112.855,500
134,112.84,112.86,112.82,112.86,2300
135,112.855,112.86,112.855,112.86,600
136,112.84,112.85,112.83,112.85,802
138,112.83,112.85,112.83,112.84,600
139,112.8324,112.85,112.8324,112.85,1023
140,112.84,112.84,112.83,112.83,1100
141,112.85,112.86,112.85,112.85,400
142,112.85,112.85,112.84,112.84,899
143,112.83,112.83,112.83,112.83,100
144,112.84,112.84,112.83,112.83,1100
145,112.85,112.85,112.85,112.85,1500
146,112.85,112.86,112.84,112.85,1646
147,112.87,112.87,112.85,112.86,1360
148,112.88,112.88,112.86,112.86,500
149,112.85,112.85,112.85,112.85,100
150,112.86,112.86,112.85,112.85,1300
151,112.87,112.87,112.87,112.87,100
152,112.9,112.9,112.87,112.87,1300
153,112.85,112.9,112.84,112.9,3934
154,112.81,112.84,112.81,112.84,650
155,112.802,112.81,112.8,112.81,700
156,112.79,112.8099,112.79,112.8099,242
158,112.8,112.8,112.8,112.8,100
160,112.78,112.78,112.78,112.78,100
162,112.79,112.79,112.75,112.75,954
163,112.782,112.79,112.782,112.79,200
166,112.79,112.8,112.79,112.7944,700
167,112.78,112.8,112.78,112.79,600
168,112.79,112.79,112.79,112.79,400
169,112.8,112.8,112.8,112.8,100
170,112.77,112.79,112.77,112.79,800
171,112.785,112.79,112.78,112.78,1083
172,112.78,112.79,112.78,112.78,500
173,112.77,112.77,112.77,112.77,100
174,112.77,112.77,112.77,112.77,116
175,112.77,112.77,112.76,112.77,1700
176,112.77,112.77,112.76,112.76,700
177,112.75,112.77,112.75,112.77,1305
178,112.76,112.76,112.76,112.76,100
179,112.76,112.76,112.7569,112.7569,300
180,112.75,112.76,112.75,112.76,600
181,112.77,112.77,112.74,112.74,900
183,112.76,112.77,112.75,112.77,1204
184,112.8,112.8,112.78,112.78,1500
185,112.8,112.81,112.8,112.81,500
186,112.78,112.8,112.78,112.8,1100
187,112.78,112.78,112.78,112.78,200
188,112.76,112.76,112.76,112.76,500
189,112.775,112.78,112.75,112.77,1317
190,112.755,112.81,112.755,112.79,3900
191,112.75,112.77,112.75,112.77,600
192,112.77,112.77,112.77,112.77,100
193,112.75,112.75,112.75,112.75,200
194,112.77,112.79,112.76,112.76,1882
195,112.79,112.79,112.79,112.79,100
196,112.77,112.79,112.77,112.77,1200
197,112.81,112.81,112.77,112.79,2340
198,112.8,112.81,112.8,112.81,400
201,112.8,112.8,112.79,112.79,400
202,112.805,112.81,112.805,112.81,632
203,112.8,112.8,112.8,112.8,200
204,112.8,112.8,112.8,112.8,100
205,112.843,112.85,112.805,112.81,4100
206,112.81,112.85,112.81,112.84,1700
207,112.817,112.817,112.8001,112.8001,678
208,112.8099,112.81,112.8099,112.81,400
209,112.81,112.82,112.805,112.805,1627
210,112.81,112.82,112.81,112.81,600
211,112.81,112.81,112.81,112.81,100
212,112.8,112.81,112.8,112.8,500
213,112.8,112.8,112.8,112.8,200
214,112.79,112.79,112.79,112.79,300
215,112.8,112.81,112.79,112.79,1500
216,112.81,112.81,112.8022,112.8022,200
217,112.81,112.81,112.81,112.81,200
218,112.81,112.81,112.81,112.81,300
219,112.79,112.79,112.79,112.79,800
220,112.81,112.81,112.8,112.8,500
221,112.8,112.8,112.8,112.8,600
222,112.79,112.8,112.79,112.8,200
224,112.8,112.8,112.8,112.8,362
225,112.8,112.81,112.8,112.8,300
226,112.82,112.82,112.8,112.81,400
227,112.8,112.82,112.8,112.82,300
228,112.83,112.83,112.82,112.82,700
229,112.84,112.86,112.84,112.84,1700
230,112.83,112.83,112.83,112.83,400
231,112.87,112.87,112.84,112.84,1300
233,112.9,112.9,112.89,112.89,500
234,112.909,112.9099,112.909,112.9099,232
235,112.91,112.91,112.91,112.91,300
236,112.92,112.93,112.92,112.93,200
237,112.93,112.93,112.92,112.92,400
238,112.95,112.95,112.94,112.94,1049
239,112.94,112.95,112.94,112.95,200
240,112.94,112.9488,112.94,112.9488,500
241,112.92,112.97,112.92,112.95,1705
242,112.91,112.91,112.91,112.91,300
243,112.93,112.93,112.92,112.92,400
245,112.94,112.94,112.92,112.93,300
246,112.93,112.93,112.93,112.93,100
247,112.93,112.94,112.93,112.94,400
248,112.95,112.95,112.95,112.95,100
249,112.95,112.95,112.93,112.94,1500
250,112.93,112.93,112.93,112.93,100
251,112.94,112.94,112.925,112.93,1065
252,112.93,112.93,112.93,112.93,800
253,112.91,112.94,112.91,112.94,600
254,112.93,112.93,112.92,112.92,200
255,112.93,112.93,112.93,112.93,100
256,112.92,112.92,112.91,112.92,600
258,112.91,112.91,112.91,112.91,1200
259,112.96,112.96,112.93,112.93,1300
260,112.9568,112.97,112.9568,112.97,700
261,112.96,112.96,112.96,112.96,169
262,112.945,112.95,112.94,112.95,400
263,112.965,112.97,112.96,112.96,600
264,112.9672,112.979,112.9672,112.979,517
265,112.98,112.98,112.98,112.98,300
266,113.07,113.07,112.99,112.99,5506
267,113.08,113.08,113.08,113.08,200
268,113.09,113.09,113.08,113.08,600
269,113.095,113.095,113.095,113.095,200
270,113.12,113.12,113.11,113.11,600
271,113.12,113.12,113.11,113.11,200
272,113.13,113.14,113.11,113.14,1650
274,113.13,113.13,113.12,113.13,851
275,113.13,113.135,113.11,113.12,400
276,113.14,113.14,113.12,113.13,1205
277,113.135,113.135,113.13,113.135,400
278,113.11,113.135,113.11,113.135,4600
279,113.12,113.12,113.12,113.12,100
280,113.12,113.12,113.12,113.12,100
281,113.065,113.1,113.065,113.1,1300
282,113.08,113.08,113.07,113.07,200
283,113.06,113.07,113.04,113.06,1000
284,113.06,113.07,113.05,113.06,600
285,113.06,113.06,113.0599,113.0599,600
286,113.03,113.06,113.03,113.06,3200
287,113.05,113.05,113.02,113.02,800
288,113.03,113.039,113.03,113.03,1189
289,113.03,113.03,113.03,113.03,500
290,113,113.03,113,113.03,1050
291,113,113.025,113,113.02,1400
292,112.99,113,112.98,113,900
293,113,113,112.99,112.99,632
294,112.99,112.99,112.97,112.98,2600
295,112.91,112.97,112.91,112.97,1956
296,112.92,112.93,112.9,112.91,2801
297,112.915,112.92,112.91,112.91,1000
298,112.91,112.94,112.91,112.915,1421
299,112.9,112.91,112.895,112.9,815
300,112.88,112.88,112.88,112.88,200
301,112.91,112.92,112.89,112.89,3303
302,112.9,112.92,112.9,112.92,1810
303,112.89,112.91,112.88,112.89,1942
304,112.88,112.9,112.88,112.9,400
305,112.88,112.89,112.8785,112.88,1300
306,112.87,112.88,112.87,112.88,1700
307,112.87,112.87,112.87,112.87,1110
308,112.89,112.89,112.87,112.88,782
309,112.92,112.92,112.88,112.88,2500
310,112.92,112.93,112.91,112.93,1300
311,112.93,112.93,112.92,112.93,900
312,112.92,112.93,112.91,112.92,800
313,112.95,112.96,112.92,112.92,1900
314,112.98,112.99,112.95,112.95,1900
315,112.98,112.98,112.97,112.98,1000
316,112.97,113,112.97,112.975,3359
317,112.93,112.975,112.93,112.975,3000
318,112.93,112.94,112.92,112.94,1900
319,112.925,112.925,112.92,112.922,423
321,112.84,112.91,112.84,112.91,2881
322,112.85,112.86,112.8348,112.84,3460
323,112.82,112.85,112.82,112.85,1200
324,112.81,112.81,112.81,112.81,200
325,112.82,112.82,112.79,112.81,1392
326,112.82,112.82,112.82,112.82,300
327,112.81,112.82,112.81,112.81,300
328,112.8,112.81,112.8,112.81,737
330,112.77,112.79,112.76,112.79,2804
331,112.78,112.78,112.78,112.78,200
332,112.79,112.79,112.7606,112.775,580
333,112.81,112.81,112.8,112.81,600
334,112.81,112.82,112.81,112.81,900
336,112.8,112.81,112.8,112.81,700
337,112.78,112.805,112.78,112.8,1238
338,112.799,112.799,112.7895,112.7895,210
339,112.83,112.83,112.8,112.8,2100
340,112.84,112.84,112.84,112.84,100
341,112.84,112.84,112.84,112.84,100
342,112.86,112.86,112.86,112.86,400
343,112.89,112.89,112.87,112.87,400
344,112.89,112.89,112.8801,112.89,1000
345,112.91,112.91,112.9,112.9,500
346,112.93,112.95,112.91,112.91,2056
347,112.94,112.95,112.93,112.93,902
348,112.93,112.94,112.92,112.94,3170
349,112.95,112.95,112.9366,112.95,1100
350,112.95,112.96,112.95,112.96,1300
351,112.99,112.99,112.95,112.95,2746
352,113,113,112.99,113,300
353,113.02,113.03,113,113,1903
354,113.025,113.025,113.02,113.02,200
355,113.02,113.02,113,113.02,1700
356,113.02,113.02,113.01,113.02,400
357,113.02,113.02,113.01,113.02,400
358,113.015,113.03,113.015,113.03,600
359,112.965,113.01,112.96,113.01,1897
360,112.97,112.97,112.95,112.95,2100
361,112.9681,112.98,112.9681,112.98,380
362,112.93,112.97,112.92,112.97,5000
363,112.95,112.95,112.93,112.93,2400
364,112.93,112.935,112.92,112.93,2607
365,112.94,112.94,112.93,112.94,700
366,112.945,112.95,112.93,112.94,2200
367,112.96,112.97,112.945,112.945,2100
368,112.97,113,112.9401,112.96,8069
369,112.99,112.99,112.96,112.96,1500
370,112.99,113,112.99,112.9901,1200
371,112.995,113.01,112.99,113,2125
372,113.01,113.01,112.99,113,1712
373,113.01,113.01,113,113.01,900
374,112.98,113,112.97,113,3899
375,112.99,113.02,112.9701,112.98,5811
376,112.99,113.02,112.99,113.01,3736
377,113.01,113.01,112.99,112.99,2104
378,112.99,113.01,112.99,113.01,2990
379,112.965,112.99,112.96,112.99,2800
380,112.93,112.96,112.93,112.96,4311
381,112.87,112.94,112.86,112.93,4203
382,112.8545,112.87,112.85,112.85,961
383,112.83,112.87,112.825,112.86,7649
384,112.81,112.84,112.81,112.84,2200
385,112.78,112.835,112.77,112.81,7613
386,112.82,112.84,112.79,112.79,5583
387,112.8,112.81,112.78,112.81,5425
388,112.83,112.83,112.81,112.81,1800
389,112.73,112.83,112.71,112.82,13564
390,112.76,112.81,112.68,112.72,21865
