EOG,EOG Resources,Energy,3,Oil & Gas Exploration & Production,56116557595,3180387
a1494509400,94.82,94.82,94.82,94.82,21879
1,94.42,94.82,94.37,94.81,6100
2,94.36,94.69,94.36,94.53,5558
3,94.82,94.84,94.37,94.44,6396
4,94.8138,94.83,94.7422,94.8,5800
5,94.63,94.88,94.562,94.82,7684
6,94.34,94.64,94.25,94.64,8984
7,94.52,94.52,94.38,94.385,13271
8,94.37,94.481,94.31,94.481,5696
9,94.35,94.4099,94.3,94.3699,2320
10,94.39,94.45,94.28,94.33,4488
11,94.44,94.4472,94.33,94.4472,3030
12,94.42,94.44,94.36,94.41,3500
13,94.3,94.47,94.3,94.4,2522
14,94.2,94.29,94.2,94.29,11100
15,94.09,94.2,94.06,94.2,7347
16,94.04,94.14,94.04,94.1,4250
17,94.12,94.2,94.07,94.07,8236
18,94.23,94.24,94.16,94.16,3727
19,94.2,94.29,94.14,94.23,7785
20,94.215,94.3305,94.17,94.26,5777
21,94.2,94.29,94.18,94.2,3400
22,94.19,94.23,94.16,94.23,3797
23,94.09,94.19,94.07,94.19,7070
24,94.01,94.09,94,94.06,5845
25,94.2,94.21,94.025,94.025,4850
26,94.06,94.17,94.06,94.17,2959
27,94.12,94.16,94.0799,94.0799,3103
28,94.3147,94.33,94.14,94.14,8594
29,94.35,94.365,94.27,94.326,14184
30,94.35,94.4,94.345,94.35,8563
31,94.34,94.48,94.33,94.3397,3606
32,94.1466,94.39,94.1466,94.34,9730
33,94,94.17,94,94.14,4085
34,94.17,94.17,94,94,2962
35,94.141,94.224,94.13,94.18,4403
36,94.105,94.16,94.105,94.16,500
37,94.09,94.13,93.99,94.13,5754
38,94.12,94.12,94.0472,94.07,1200
39,94.19,94.19,94.1,94.17,2830
40,94.28,94.35,94.2,94.2,5072
41,94.4,94.4,94.27,94.3,4536
42,94.59,94.59,94.42,94.42,2800
43,94.57,94.63,94.51,94.59,6855
44,94.43,94.56,94.43,94.56,3843
45,94.5,94.52,94.44,94.45,6188
46,94.565,94.59,94.48,94.48,4207
47,94.59,94.59,94.52,94.56,2200
48,94.44,94.62,94.44,94.5917,5303
49,94.5,94.5,94.41,94.435,1500
50,94.49,94.56,94.46,94.56,3511
51,94.508,94.535,94.49,94.5,3043
52,94.34,94.52,94.34,94.52,2700
53,94.24,94.355,94.24,94.355,1200
54,94.16,94.27,94.16,94.22,3698
55,94.22,94.23,94.13,94.13,4316
56,94.35,94.36,94.24,94.24,1400
57,94.46,94.51,94.37,94.38,3700
58,94.55,94.55,94.49,94.49,4400
59,94.53,94.57,94.51,94.57,3666
60,94.62,94.64,94.55,94.55,3391
61,94.72,94.73,94.64,94.64,2055
62,94.56,94.72,94.56,94.72,5750
63,94.735,94.79,94.59,94.59,5143
64,94.79,94.79,94.73,94.73,2400
65,94.77,94.78,94.74,94.76,2871
66,94.67,94.79,94.65,94.77,5017
67,94.76,94.78,94.67,94.73,3990
68,94.71,94.754,94.71,94.74,2641
69,94.61,94.73,94.6,94.73,2900
70,94.67,94.67,94.61,94.615,3500
71,94.61,94.635,94.59,94.63,1900
72,94.65,94.65,94.53,94.61,5846
73,94.57,94.655,94.56,94.63,6450
74,94.53,94.617,94.5,94.59,2800
75,94.53,94.56,94.47,94.5,3551
76,94.46,94.54,94.41,94.54,4574
77,94.4,94.4,94.4,94.4,400
78,94.47,94.5,94.395,94.41,2770
79,94.615,94.615,94.49,94.49,3162
80,94.43,94.57,94.43,94.57,3120
81,94.434,94.45,94.36,94.44,3357
82,94.43,94.495,94.42,94.42,2600
83,94.5,94.505,94.41,94.43,20560
84,94.46,94.51,94.45,94.49,5910
85,94.51,94.51,94.48,94.49,2115
86,94.55,94.565,94.51,94.51,3200
87,94.67,94.67,94.5432,94.56,2831
88,94.675,94.72,94.63,94.69,2400
89,94.705,94.705,94.6,94.69,11200
90,94.725,94.73,94.71,94.71,3100
91,94.77,94.85,94.72,94.77,9560
92,94.895,94.9223,94.74,94.76,11043
93,94.86,94.9,94.78,94.85,20949
94,94.8661,94.904,94.85,94.89,16000
95,94.7698,94.86,94.7698,94.85,1752
96,94.69,94.75,94.62,94.75,5815
97,94.67,94.69,94.67,94.69,2941
98,94.63,94.65,94.58,94.65,2810
99,94.64,94.6499,94.6,94.63,5589
100,94.72,94.75,94.6,94.62,6140
101,94.71,94.73,94.68,94.68,2010
102,94.77,94.77,94.68,94.71,10953
103,94.756,94.79,94.73,94.73,8600
104,94.785,94.785,94.755,94.764,2116
105,94.76,94.82,94.76,94.78,8081
106,94.79,94.79,94.715,94.75,7701
107,94.74,94.8,94.74,94.775,4245
108,94.69,94.71,94.66,94.71,2000
109,94.71,94.73,94.69,94.7,13719
110,94.615,94.72,94.61,94.72,2432
111,94.555,94.59,94.54,94.57,9050
112,94.51,94.55,94.46,94.55,5250
113,94.4902,94.53,94.46,94.53,5500
114,94.48,94.51,94.46,94.46,3000
115,94.4,94.49,94.4,94.475,8787
116,94.39,94.44,94.37,94.42,6718
117,94.35,94.4,94.31,94.39,3999
118,94.32,94.39,94.295,94.34,12667
119,94.34,94.37,94.32,94.32,9037
120,94.38,94.4,94.36,94.36,2900
121,94.44,94.48,94.4,94.4,10017
122,94.46,94.48,94.44,94.44,4000
123,94.48,94.52,94.45,94.47,8650
124,94.445,94.445,94.445,94.445,100
125,94.35,94.43,94.34,94.43,5011
126,94.42,94.42,94.35,94.35,1200
127,94.38,94.42,94.38,94.41,1802
128,94.42,94.46,94.41,94.41,7407
129,94.43,94.445,94.4139,94.4199,4496
130,94.45,94.48,94.43,94.446,1300
131,94.48,94.48,94.45,94.45,2000
132,94.45,94.52,94.44,94.485,8000
133,94.455,94.455,94.39,94.42,3117
134,94.445,94.47,94.445,94.465,1169
135,94.46,94.47,94.43,94.47,5278
136,94.49,94.51,94.44,94.46,13547
137,94.51,94.515,94.49,94.49,7635
138,94.5,94.52,94.485,94.51,5710
139,94.58,94.59,94.5,94.5,9115
140,94.6,94.6,94.57,94.585,16895
141,94.6,94.6,94.56,94.59,6923
142,94.6,94.6,94.56,94.6,3800
143,94.58,94.61,94.57,94.6,1349
144,94.55,94.61,94.545,94.59,4050
145,94.55,94.55,94.55,94.55,200
146,94.55,94.56,94.535,94.55,5937
147,94.495,94.56,94.49,94.55,3194
148,94.518,94.53,94.48,94.49,1200
149,94.48,94.5,94.43,94.5,6203
150,94.47,94.47,94.45,94.4675,1713
151,94.45,94.49,94.45,94.48,2990
152,94.49,94.49,94.4,94.44,3820
153,94.48,94.49,94.46,94.47,1201
154,94.53,94.53,94.47,94.48,6060
155,94.54,94.54,94.5,94.51,4354
156,94.53,94.56,94.53,94.55,1520
157,94.497,94.54,94.49,94.538,5290
158,94.5,94.5,94.49,94.5,1700
159,94.49,94.51,94.48,94.49,2249
160,94.55,94.57,94.4801,94.4801,24176
161,94.58,94.58,94.55,94.55,1001
162,94.605,94.61,94.59,94.59,600
163,94.58,94.64,94.58,94.63,4607
164,94.54,94.585,94.52,94.58,1600
165,94.56,94.56,94.53,94.56,1101
166,94.54,94.556,94.495,94.535,3820
167,94.56,94.56,94.5237,94.5237,3070
168,94.62,94.62,94.58,94.58,1900
169,94.68,94.68,94.59,94.6,13701
170,94.65,94.69,94.62,94.64,7668
171,94.64,94.65,94.61,94.64,4194
172,94.624,94.67,94.624,94.64,1961
173,94.61,94.64,94.6,94.62,3746
174,94.63,94.6325,94.605,94.61,3600
175,94.61,94.61,94.58,94.61,3300
176,94.6175,94.63,94.61,94.62,1869
177,94.64,94.65,94.6,94.6,5547
178,94.61,94.64,94.59,94.625,3378
179,94.58,94.628,94.575,94.628,2777
180,94.51,94.56,94.49,94.56,2600
181,94.46,94.52,94.46,94.52,2120
182,94.4,94.52,94.4,94.51,2750
183,94.48,94.48,94.41,94.42,1916
184,94.536,94.536,94.5,94.5,500
185,94.5098,94.51,94.48,94.5,2394
186,94.5,94.52,94.5,94.505,4473
187,94.48,94.5,94.47,94.5,3949
188,94.49,94.51,94.46,94.48,4150
189,94.46,94.5,94.45,94.5,2100
190,94.42,94.46,94.42,94.46,500
191,94.36,94.41,94.36,94.38,4609
192,94.4,94.41,94.37,94.37,3301
193,94.28,94.39,94.28,94.39,5600
194,94.3954,94.3954,94.3,94.3,1059
195,94.43,94.45,94.4,94.4,4650
196,94.45,94.45,94.37,94.4298,3180
197,94.42,94.476,94.42,94.476,2518
199,94.34,94.39,94.34,94.39,2804
200,94.3268,94.34,94.31,94.34,1738
201,94.27,94.32,94.27,94.32,800
202,94.3,94.3,94.25,94.27,1566
203,94.29,94.29,94.23,94.28,2300
204,94.21,94.25,94.21,94.25,1300
205,94.25,94.25,94.21,94.21,1600
206,94.29,94.29,94.26,94.27,800
207,94.24,94.25,94.24,94.25,700
208,94.24,94.24,94.24,94.24,1000
209,94.22,94.24,94.19,94.24,3544
210,94.16,94.219,94.15,94.219,8999
211,94.145,94.17,94.14,94.17,2898
212,94.11,94.156,94.11,94.1287,1231
213,94.11,94.13,94.09,94.12,2922
214,94.11,94.11,94.09,94.1,1600
215,94.05,94.128,94.0177,94.11,4385
216,94.08,94.08,94.05,94.05,2000
217,94.095,94.095,94.05,94.07,1600
218,94.1,94.128,94.08,94.0992,3623
219,94.06,94.11,94.06,94.11,3257
220,94.027,94.06,93.98,94.06,2000
221,94.01,94.03,94.01,94.03,900
222,94.08,94.08,93.99,94.01,3400
223,94.06,94.107,94.05,94.08,1125
224,94.08,94.08,94.08,94.08,500
225,94.12,94.12,94.1,94.1,1800
226,94.16,94.16,94.12,94.15,2400
227,94.166,94.19,94.13,94.17,3495
228,94.17,94.17,94.17,94.17,400
229,94.2,94.2,94.17,94.17,1656
230,94.21,94.21,94.2,94.21,3120
231,94.2,94.2,94.18,94.2,4100
232,94.15,94.2,94.14,94.18,2700
233,94.19,94.2,94.16,94.16,3300
234,94.196,94.196,94.196,94.196,300
235,94.17,94.21,94.17,94.2,2405
236,94.13,94.19,94.13,94.19,1208
237,94.12,94.12,94.07,94.11,5339
238,94.136,94.136,94.11,94.12,700
239,94.116,94.14,94.09,94.14,3500
240,94.08,94.1066,94.08,94.1066,600
241,94.07,94.11,94.07,94.09,5663
243,94.0547,94.06,94.03,94.04,6611
244,94.08,94.11,94.06,94.06,3900
245,94.1086,94.117,94.097,94.097,1668
246,94.06,94.09,94.03,94.09,3855
247,94.12,94.12,94.08,94.08,1200
248,94.12,94.12,94.08,94.11,11205
249,94.07,94.12,94.07,94.0972,2842
250,94.06,94.09,94.06,94.09,1700
251,94.03,94.08,94.03,94.07,2593
252,94.02,94.06,94.02,94.0346,5088
253,94.06,94.06,94.03,94.03,2200
254,94.095,94.1,94.04,94.06,6401
255,94.11,94.11,94.0972,94.0972,390
256,94.08,94.1,94.08,94.09,1700
257,94.08,94.09,94.06,94.07,6108
258,94.09,94.09,94.0899,94.09,628
259,94.075,94.11,94.07,94.09,4413
260,94.08,94.12,94.08,94.087,3598
261,94.11,94.11,94.07,94.07,500
262,94.11,94.12,94.08,94.1,4558
263,94.14,94.14,94.12,94.12,1189
264,94.15,94.16,94.13,94.14,2300
265,94.17,94.17,94.145,94.15,4010
266,94.17,94.17,94.145,94.17,5896
267,94.16,94.18,94.15,94.15,3022
268,94.165,94.18,94.15,94.155,6492
269,94.17,94.17,94.14,94.16,3100
270,94.17,94.18,94.155,94.18,1600
271,94.18,94.18,94.14,94.15,6521
272,94.17,94.17,94.13,94.15,3720
273,94.07,94.155,94.07,94.155,6375
274,94.1,94.11,94.07,94.07,4649
275,94.1,94.1,94.07,94.09,6202
276,94.08,94.1,94.08,94.1,1100
277,94,94.08,94,94.07,4642
278,94.01,94.02,93.995,94.01,3962
279,93.99,94.01,93.99,94,2700
280,94,94.02,93.995,94,2200
281,94.025,94.025,94.01,94.01,1580
282,94.05,94.05,94.01,94.01,4600
283,94.07,94.08,94.04,94.04,6488
284,94.07,94.09,94.05,94.08,3851
285,94.12,94.14,94.09,94.09,3858
286,94.13,94.136,94.09,94.136,4444
287,94.11,94.14,94.1,94.13,7600
288,94.1754,94.18,94.11,94.11,10189
289,94.19,94.19,94.1686,94.17,2350
290,94.33,94.33,94.19,94.19,5564
291,94.31,94.33,94.3,94.32,4000
292,94.39,94.39,94.31,94.32,1340
293,94.33,94.39,94.29,94.39,5601
294,94.335,94.37,94.33,94.37,2149
295,94.29,94.32,94.27,94.32,3120
296,94.31,94.32,94.24,94.29,7148
297,94.36,94.37,94.3,94.3,4400
298,94.375,94.39,94.35,94.36,3200
299,94.34,94.4,94.33,94.36,9000
300,94.3584,94.38,94.32,94.36,2325
301,94.34,94.36,94.34,94.35,2300
302,94.34,94.35,94.33,94.35,1690
303,94.34,94.36,94.31,94.36,5000
304,94.36,94.38,94.36,94.36,1600
305,94.34,94.36,94.31,94.36,3691
306,94.28,94.31,94.28,94.31,3173
307,94.29,94.31,94.28,94.285,3577
308,94.32,94.32,94.28,94.28,1347
309,94.35,94.35,94.29,94.31,2100
310,94.4,94.4,94.335,94.335,2800
311,94.395,94.395,94.375,94.38,2671
312,94.385,94.4,94.38,94.395,2115
313,94.4,94.41,94.38,94.4,7534
314,94.41,94.41,94.39,94.4,3700
315,94.42,94.42,94.4,94.41,1829
316,94.45,94.45,94.415,94.42,2080
317,94.48,94.48,94.45,94.45,5907
318,94.497,94.497,94.48,94.48,925
319,94.5,94.5,94.47,94.49,8923
320,94.54,94.54,94.5,94.5,1800
321,94.545,94.577,94.54,94.55,2449
322,94.54,94.54,94.53,94.54,1626
323,94.54,94.54,94.51,94.53,6286
324,94.545,94.55,94.545,94.55,1550
325,94.47,94.545,94.46,94.54,6423
326,94.49,94.49,94.4386,94.46,6642
327,94.45,94.49,94.45,94.487,3100
328,94.47,94.47,94.44,94.46,1502
329,94.46,94.48,94.46,94.46,3700
330,94.46,94.49,94.44,94.46,4375
331,94.4837,94.4998,94.45,94.465,3901
332,94.58,94.61,94.5,94.5,34411
333,94.57,94.59,94.56,94.57,8304
334,94.55,94.56,94.53,94.56,7140
335,94.57,94.6,94.55,94.57,6600
336,94.61,94.61,94.59,94.59,8163
337,94.61,94.62,94.59,94.61,4021
338,94.62,94.63,94.6,94.605,6787
339,94.69,94.7199,94.62,94.62,13733
340,94.69,94.7,94.67,94.7,10493
341,94.6891,94.7,94.68,94.68,2513
342,94.68,94.69,94.67,94.68,3717
343,94.695,94.695,94.68,94.68,2490
344,94.73,94.745,94.7,94.7,5123
345,94.74,94.74,94.73,94.73,2501
346,94.78,94.8,94.74,94.75,7127
347,94.76,94.79,94.76,94.78,2100
348,94.83,94.83,94.76,94.78,8157
349,94.81,94.9,94.81,94.83,11000
350,94.8,94.8,94.78,94.79,3742
351,94.81,94.83,94.7907,94.8,4209
352,94.76,94.82,94.76,94.8,9100
353,94.72,94.76,94.72,94.75,2600
354,94.73,94.75,94.7,94.715,16058
355,94.73,94.74,94.72,94.73,4434
356,94.74,94.745,94.72,94.73,5564
357,94.69,94.73,94.675,94.73,9200
358,94.68,94.72,94.68,94.6949,17106
359,94.72,94.73,94.675,94.675,3941
360,94.72,94.74,94.7,94.72,7479
361,94.623,94.71,94.623,94.7,2350
362,94.62,94.65,94.6,94.65,10895
363,94.642,94.65,94.615,94.63,6443
364,94.66,94.66,94.64,94.66,1500
365,94.65,94.66,94.62,94.64,10590
366,94.61,94.65,94.59,94.65,4256
367,94.63,94.63,94.59,94.613,8129
368,94.6,94.62,94.6,94.615,1946
369,94.47,94.59,94.47,94.59,13333
370,94.48,94.5,94.48,94.49,3784
371,94.39,94.49,94.39,94.48,8568
372,94.4,94.4,94.34,94.39,7479
373,94.28,94.39,94.28,94.39,9023
374,94.22,94.28,94.22,94.27,8723
375,94.12,94.21,94.12,94.21,13494
376,94.24,94.27,94.14,94.14,13957
377,94.33,94.33,94.22,94.25,16404
378,94.3,94.34,94.29,94.33,11333
379,94.31,94.31,94.28,94.3,13096
380,94.25,94.31,94.24,94.31,8988
381,94.295,94.31,94.25,94.25,12789
382,94.29,94.32,94.29,94.3,9456
383,94.25,94.28,94.2,94.28,18072
384,94.2,94.25,94.14,94.25,23293
385,94.265,94.28,94.19,94.2,17670
386,94.2225,94.29,94.22,94.27,17340
387,94.24,94.25,94.175,94.225,22431
388,94.21,94.24,94.2,94.22,14480
389,94.21,94.22,94.19,94.2,25032
390,94.28,94.3,94.2,94.21,45718
