PPG,PPG Industries,Materials,8,Specialty Chemicals,27495045542,1307899
a1494509400,107.39,107.4,107.31,107.31,14522
1,107.475,107.56,107.39,107.56,300
2,107.465,107.465,107.38,107.465,500
3,107.4,107.475,107.4,107.47,700
4,107.49,107.62,107.38,107.42,2345
5,107.75,107.76,107.57,107.57,1300
6,107.41,107.66,107.41,107.66,1836
7,107.4799,107.4799,107.38,107.44,965
8,107.37,107.38,107.34,107.38,800
9,107.28,107.34,107.28,107.34,900
10,107.23,107.32,107.22,107.32,1000
11,107.2,107.27,107.2,107.27,700
12,107.24,107.24,107.135,107.19,2700
13,107.27,107.32,107.25,107.31,2700
14,107.2,107.25,107.16,107.25,900
15,107.07,107.195,107.07,107.195,1900
16,107.05,107.08,107.05,107.05,600
17,106.96,107.075,106.96,107.075,2300
18,106.93,106.95,106.93,106.95,900
19,106.91,106.92,106.91,106.91,300
20,106.88,106.96,106.88,106.945,2170
21,106.85,106.915,106.85,106.915,500
22,106.861,106.861,106.76,106.84,6200
23,106.86,106.86,106.79,106.83,405
24,106.73,106.825,106.73,106.825,2300
25,106.71,106.76,106.661,106.75,3570
26,106.5501,106.72,106.5501,106.71,2439
27,106.48,106.57,106.46,106.57,600
28,106.58,106.58,106.465,106.465,2048
29,106.64,106.69,106.59,106.6,1399
30,106.71,106.71,106.57,106.62,2500
31,106.64,106.71,106.64,106.71,1500
32,106.65,106.69,106.64,106.69,1600
33,106.6,106.67,106.6,106.665,1800
34,106.64,106.64,106.59,106.61,700
35,106.61,106.61,106.575,106.575,3861
36,106.63,106.66,106.59,106.61,3768
37,106.52,106.62,106.52,106.62,1500
38,106.5348,106.55,106.53,106.53,720
39,106.53,106.5306,106.5,106.5306,1992
41,106.53,106.5386,106.52,106.5386,738
42,106.54,106.56,106.52,106.55,1372
43,106.49,106.51,106.48,106.51,1915
44,106.5,106.51,106.48,106.48,800
45,106.54,106.55,106.48,106.49,1000
46,106.57,106.605,106.57,106.605,200
47,106.69,106.69,106.57,106.57,600
48,106.7,106.72,106.68,106.71,3091
49,106.68,106.72,106.68,106.7,1700
50,106.665,106.67,106.66,106.67,500
51,106.64,106.64,106.6163,106.63,628
52,106.55,106.62,106.55,106.62,1500
53,106.56,106.6,106.5407,106.5407,1534
54,106.43,106.55,106.43,106.55,2200
55,106.42,106.45,106.39,106.39,1200
56,106.42,106.45,106.41,106.41,2279
57,106.46,106.48,106.46,106.48,400
58,106.45,106.5,106.45,106.5,700
59,106.4,106.45,106.4,106.45,605
61,106.455,106.46,106.415,106.43,1202
62,106.31,106.455,106.31,106.455,1411
63,106.37,106.37,106.34,106.34,1000
64,106.46,106.47,106.42,106.42,800
65,106.5,106.51,106.5,106.51,200
66,106.52,106.52,106.47,106.47,430
67,106.56,106.56,106.51,106.5475,590
68,106.47,106.58,106.47,106.58,700
69,106.52,106.52,106.52,106.52,100
70,106.53,106.59,106.525,106.55,817
71,106.65,106.65,106.56,106.56,1550
72,106.61,106.6687,106.6,106.6687,2940
73,106.635,106.65,106.635,106.65,200
74,106.61,106.66,106.61,106.66,300
75,106.55,106.635,106.55,106.635,3378
76,106.6,106.6,106.56,106.56,1700
77,106.59,106.59,106.57,106.58,1700
78,106.57,106.6,106.57,106.59,4147
79,106.53,106.58,106.53,106.58,1500
80,106.48,106.52,106.48,106.52,1000
81,106.45,106.46,106.4,106.43,1400
82,106.4466,106.46,106.4466,106.46,213
83,106.4,106.46,106.4,106.46,1900
84,106.36,106.41,106.36,106.4,2488
85,106.31,106.37,106.27,106.37,5270
86,106.39,106.39,106.32,106.32,1400
87,106.39,106.39,106.39,106.39,450
88,106.47,106.47,106.42,106.43,1300
89,106.46,106.46,106.46,106.46,100
90,106.47,106.5,106.45,106.48,1048
91,106.48,106.48,106.41,106.45,2196
92,106.55,106.55,106.49,106.49,1100
93,106.49,106.55,106.48,106.55,2100
95,106.6,106.6,106.51,106.51,1966
96,106.56,106.57,106.54,106.56,1972
97,106.55,106.56,106.54,106.55,1428
98,106.6,106.6,106.53,106.53,2200
99,106.59,106.63,106.59,106.61,1100
100,106.58,106.6,106.57,106.59,4365
101,106.67,106.67,106.59,106.59,2820
102,106.6,106.66,106.6,106.66,2100
103,106.59,106.59,106.57,106.58,400
104,106.6,106.61,106.6,106.6,1988
105,106.58,106.6099,106.58,106.6,4360
106,106.57,106.65,106.56,106.56,11859
107,106.57,106.58,106.55,106.57,4736
108,106.59,106.59,106.57,106.57,1500
109,106.65,106.66,106.59,106.59,3800
110,106.59,106.65,106.57,106.65,8800
112,106.57,106.59,106.55,106.58,5520
113,106.53,106.56,106.53,106.56,911
114,106.53,106.53,106.5,106.51,2269
115,106.51,106.51,106.48,106.5014,2882
116,106.52,106.52,106.52,106.52,600
117,106.6,106.6,106.53,106.53,1620
118,106.59,106.61,106.57,106.6,3000
119,106.6,106.6,106.5862,106.5862,1840
120,106.5625,106.57,106.56,106.57,2613
121,106.55,106.56,106.55,106.56,619
122,106.6,106.6,106.56,106.56,3071
123,106.71,106.71,106.6,106.6,700
124,106.63,106.75,106.62,106.75,4135
125,106.65,106.65,106.59,106.64,2350
127,106.645,106.645,106.645,106.645,130
128,106.7,106.72,106.65,106.65,2000
129,106.7,106.7,106.69,106.7,1100
130,106.66,106.7,106.66,106.7,1000
131,106.6601,106.6601,106.6601,106.6601,152
132,106.68,106.69,106.68,106.69,5400
133,106.67,106.71,106.67,106.7,2712
134,106.63,106.66,106.63,106.66,800
135,106.63,106.64,106.61,106.63,3800
137,106.63,106.66,106.62,106.66,500
138,106.66,106.68,106.65,106.66,2100
139,106.69,106.69,106.68,106.68,300
140,106.7,106.71,106.67,106.69,1905
141,106.67,106.73,106.67,106.73,1021
142,106.66,106.69,106.64,106.68,2390
143,106.67,106.67,106.65,106.66,1200
144,106.65,106.6801,106.65,106.6801,323
145,106.67,106.69,106.67,106.69,540
146,106.7,106.71,106.68,106.69,1400
147,106.67,106.71,106.67,106.7,3041
148,106.65,106.66,106.65,106.66,700
149,106.65,106.66,106.65,106.66,200
151,106.65,106.68,106.65,106.68,2671
152,106.665,106.69,106.65,106.66,2200
153,106.69,106.7197,106.68,106.7,1110
154,106.69,106.69,106.68,106.69,2100
155,106.69,106.69,106.69,106.69,100
156,106.69,106.73,106.69,106.73,400
157,106.77,106.77,106.71,106.72,900
158,106.71,106.76,106.71,106.74,1700
159,106.7,106.7,106.7,106.7,200
160,106.71,106.71,106.69,106.69,1200
161,106.7,106.7,106.68,106.7,1100
162,106.7,106.7,106.7,106.7,300
164,106.72,106.74,106.71,106.72,1850
165,106.72,106.72,106.71,106.72,1100
166,106.76,106.76,106.72,106.72,1500
167,106.77,106.79,106.76,106.77,600
168,106.83,106.83,106.8,106.8,500
169,106.84,106.84,106.84,106.84,300
170,106.84,106.87,106.81,106.85,3200
173,106.8,106.83,106.8,106.82,1200
174,106.82,106.82,106.82,106.82,100
175,106.85,106.86,106.82,106.82,1400
177,106.87,106.87,106.84,106.84,600
178,106.885,106.89,106.88,106.88,508
179,106.87,106.87,106.85,106.86,1400
180,106.91,106.91,106.89,106.89,500
182,106.91,106.95,106.9,106.93,2102
183,106.91,106.91,106.9,106.9,300
184,106.94,106.94,106.92,106.92,300
185,106.94,106.94,106.91,106.92,1800
187,106.9799,106.9799,106.95,106.95,700
188,106.9606,106.97,106.9606,106.97,580
189,106.89,106.96,106.87,106.96,6195
190,106.89,106.91,106.89,106.91,400
191,106.91,106.91,106.9,106.9,300
192,106.91,106.91,106.9,106.9,200
193,106.92,106.92,106.92,106.92,300
194,106.93,106.93,106.93,106.93,200
195,106.96,106.96,106.95,106.95,200
196,106.92,106.95,106.9,106.95,1100
197,106.93,106.93,106.93,106.93,100
198,106.925,106.93,106.92,106.93,1000
199,106.9104,106.9104,106.9104,106.9104,134
200,106.89,106.89,106.89,106.89,200
201,106.85,106.87,106.84,106.87,1100
202,106.86,106.86,106.86,106.86,100
203,106.83,106.87,106.83,106.87,852
204,106.82,106.84,106.82,106.84,400
205,106.8201,106.83,106.81,106.8247,1376
206,106.87,106.87,106.835,106.84,1000
207,106.89,106.89,106.89,106.89,100
208,106.89,106.89,106.89,106.89,100
209,106.9,106.93,106.9,106.93,1200
210,106.88,106.91,106.88,106.9,1900
212,106.88,106.88,106.88,106.88,300
213,106.86,106.89,106.86,106.89,1000
214,106.89,106.9,106.88,106.89,1100
215,106.84,106.88,106.81,106.88,2011
217,106.83,106.8415,106.82,106.8415,418
218,106.82,106.845,106.82,106.845,300
219,106.86,106.86,106.86,106.86,200
220,106.87,106.87,106.87,106.87,100
221,106.87,106.87,106.87,106.87,100
222,106.89,106.89,106.85,106.87,2598
223,106.9,106.9,106.892,106.8944,346
224,106.93,106.93,106.92,106.92,200
225,106.95,106.95,106.93,106.93,800
226,107,107,106.97,106.97,700
227,107.03,107.03,107.03,107.03,100
229,106.96,107.03,106.96,107.016,1311
232,106.93,106.95,106.93,106.95,550
236,106.945,106.945,106.93,106.936,464
237,106.87,106.94,106.87,106.94,3800
238,106.91,106.92,106.88,106.88,1500
239,106.925,106.925,106.92,106.92,400
240,106.86,106.91,106.86,106.91,1500
241,106.93,106.93,106.89,106.9,800
242,106.96,106.96,106.94,106.94,300
243,106.9508,106.9508,106.95,106.95,225
244,106.94,106.94,106.94,106.94,206
246,106.95,106.95,106.925,106.93,1000
247,107.01,107.01,106.96,106.96,400
248,106.97,106.98,106.97,106.98,500
251,106.96,106.98,106.96,106.98,1400
252,106.99,106.99,106.99,106.99,200
253,107.02,107.02,106.96,106.98,1185
254,107.05,107.05,107,107.02,900
255,107.02,107.02,107,107.02,1531
256,107.01,107.03,107.01,107.03,1800
257,106.97,107.01,106.93,107.01,7900
258,106.95,106.97,106.95,106.97,607
260,106.98,106.98,106.94,106.94,300
261,106.96,106.96,106.96,106.96,200
264,106.98,106.98,106.98,106.98,100
265,106.9728,106.9728,106.9728,106.9728,150
266,106.95,106.95,106.95,106.95,925
267,106.99,106.99,106.97,106.98,1700
268,106.95,106.9873,106.95,106.97,1300
269,106.93,106.97,106.91,106.97,2232
270,106.99,106.99,106.9346,106.9346,2000
272,107,107.01,106.99,107.01,400
273,106.98,107.01,106.98,107.01,1001
275,107.01,107.01,107.01,107.01,100
276,107.06,107.06,107.01,107.01,1100
277,106.98,107.07,106.98,107.06,3965
279,106.97,107,106.97,107,314
280,107.07,107.07,106.985,106.985,1200
281,107.13,107.13,107.08,107.08,1000
282,107.08,107.13,107.08,107.13,2265
283,107.11,107.12,107.1,107.1,600
284,107.15,107.15,107.105,107.12,1200
285,107.19,107.19,107.15,107.15,830
286,107.173,107.173,107.14,107.15,1797
287,107.16,107.2,107.16,107.19,1950
288,107.19,107.19,107.17,107.17,1300
289,107.18,107.19,107.17,107.17,300
290,107.34,107.34,107.19,107.19,2500
291,107.34,107.34,107.3,107.31,1010
292,107.36,107.36,107.36,107.36,100
293,107.34,107.36,107.33,107.36,850
294,107.3035,107.35,107.3,107.35,1261
295,107.3,107.3016,107.285,107.3016,1307
296,107.32,107.32,107.3,107.3,600
297,107.36,107.36,107.32,107.32,500
298,107.37,107.37,107.37,107.37,200
299,107.31,107.36,107.31,107.36,1901
300,107.315,107.32,107.3,107.32,500
302,107.32,107.32,107.3,107.3,400
303,107.26,107.31,107.26,107.31,3055
304,107.2735,107.29,107.27,107.27,1761
305,107.28,107.3,107.28,107.29,700
306,107.3,107.3,107.3,107.3,100
307,107.28,107.31,107.28,107.31,700
308,107.26,107.27,107.26,107.27,1000
309,107.24,107.25,107.23,107.25,2195
310,107.24,107.25,107.23,107.24,947
311,107.25,107.25,107.25,107.25,100
312,107.27,107.27,107.25,107.25,800
313,107.32,107.32,107.29,107.29,1237
315,107.33,107.33,107.33,107.33,100
316,107.32,107.32,107.3,107.31,566
317,107.33,107.33,107.33,107.33,201
318,107.33,107.33,107.32,107.33,900
319,107.33,107.33,107.31,107.31,2100
320,107.33,107.33,107.33,107.33,900
321,107.31,107.32,107.31,107.32,1427
322,107.3014,107.3014,107.27,107.3,2550
323,107.28,107.3,107.28,107.3,600
326,107.26,107.29,107.26,107.29,900
327,107.25,107.27,107.25,107.27,859
328,107.27,107.27,107.24,107.24,1257
329,107.31,107.31,107.3,107.3,200
330,107.29,107.29,107.28,107.28,600
331,107.3,107.31,107.2904,107.3,820
332,107.34,107.34,107.29,107.3,1458
333,107.29,107.31,107.28,107.3,2080
334,107.28,107.3,107.28,107.28,500
335,107.31,107.31,107.28,107.29,1200
336,107.33,107.33,107.31,107.31,1490
337,107.34,107.35,107.33,107.35,718
338,107.29,107.32,107.29,107.32,1074
339,107.33,107.33,107.31,107.31,3400
340,107.34,107.34,107.32,107.332,1479
341,107.3286,107.3286,107.31,107.32,1409
342,107.34,107.34,107.34,107.34,100
343,107.31,107.325,107.31,107.32,400
344,107.31,107.32,107.3,107.31,1877
345,107.32,107.32,107.3,107.31,1700
346,107.335,107.3499,107.32,107.32,647
347,107.31,107.33,107.3,107.33,1200
348,107.32,107.33,107.32,107.32,1932
349,107.31,107.32,107.31,107.32,1715
350,107.3,107.3,107.29,107.29,756
352,107.27,107.29,107.27,107.29,1256
354,107.27,107.27,107.25,107.26,477
355,107.28,107.28,107.28,107.28,100
356,107.29,107.3,107.28,107.28,700
357,107.28,107.29,107.28,107.29,600
358,107.3,107.3,107.28,107.28,539
359,107.31,107.31,107.31,107.31,400
360,107.32,107.32,107.32,107.32,300
361,107.29,107.31,107.29,107.31,1103
362,107.28,107.31,107.28,107.3,900
363,107.29,107.29,107.29,107.29,100
364,107.33,107.33,107.33,107.33,300
365,107.32,107.33,107.32,107.33,400
366,107.33,107.33,107.32,107.32,695
