EOG,EOG Resources,Energy,3,Oil & Gas Exploration & Production,49390382686,3314392
a1496928600,87.8,87.8,87.63,87.63,17234
1,87.774,87.91,87.643,87.643,10816
2,87.91,87.91,87.795,87.81,2802
3,87.74,88,87.74,87.98,102506
4,87.86,87.86,87.69,87.785,2886
5,88.06,88.11,87.87,87.87,9176
6,88.545,88.58,88.05,88.09,19773
7,88.64,88.65,88.44,88.47,3625
8,88.65,88.8,88.6,88.64,7017
9,88.49,88.75,88.47,88.72,20442
10,88.42,88.57,88.16,88.5,37759
11,88.54,88.69,88.31,88.52,10410
12,88.57,88.63,88.48,88.53,13800
13,88.45,88.59,88.45,88.59,4204
14,88.41,88.525,88.34,88.49,4148
15,88.53,88.53,88.43,88.48,4400
16,88.57,88.62,88.53,88.54,7170
17,88.4,88.6,88.4,88.53,12541
18,88.34,88.43,88.33,88.4,2200
19,88.34,88.49,88.31,88.37,50200
20,88.34,88.3999,88.34,88.36,2200
21,88.22,88.34,88.19,88.34,6402
22,88.1408,88.2,88.13,88.2,4050
23,88.08,88.19,88.05,88.16,5700
24,88.07,88.218,88.01,88.179,4350
25,88.133,88.133,87.93,88.02,4831
26,88.35,88.35,88.1673,88.18,3937
27,88.47,88.47,88.27,88.3,4201
28,88.4,88.48,88.37,88.48,6110
29,88.36,88.45,88.36,88.36,5200
30,88.28,88.354,88.25,88.354,5930
31,88.29,88.32,88.25,88.26,4350
32,88.47,88.47,88.29,88.3,9015
33,88.59,88.6,88.48,88.48,2600
34,88.44,88.58,88.44,88.57,5050
35,88.38,88.49,88.38,88.44,7304
36,88.46,88.54,88.36,88.39,9350
37,88.3725,88.46,88.34,88.46,2825
38,88.48,88.48,88.4,88.4,1150
39,88.37,88.48,88.36,88.48,5164
40,88.27,88.38,88.25,88.37,4400
41,88.25,88.28,88.22,88.27,1548
42,88.2025,88.24,88.18,88.24,4948
43,88.18,88.24,88.1711,88.1711,3772
44,88.34,88.34,88.21,88.21,5100
45,88.4,88.4,88.28,88.34,2067
46,88.3101,88.44,88.3101,88.44,3134
47,88.19,88.31,88.18,88.31,6042
48,88.24,88.24,88.11,88.18,5057
49,88.4,88.42,88.24,88.24,5106
50,88.5,88.55,88.4,88.44,10317
51,88.29,88.51,88.29,88.48,3300
52,88.27,88.32,88.2,88.26,5701
53,88.37,88.4,88.23,88.29,7114
54,88.4,88.4,88.33,88.365,837
55,88.37,88.49,88.36,88.42,10118
56,88.24,88.37,88.23,88.36,2600
57,88.27,88.27,88.19,88.2305,2100
58,88.22,88.31,88.22,88.27,1500
59,88.235,88.24,88.19,88.2,900
60,88.19,88.3,88.19,88.27,3874
61,88.25,88.32,88.21,88.215,3150
62,88.3,88.33,88.26,88.32,4166
63,88.14,88.33,88.1,88.33,4676
64,88.19,88.22,88.16,88.19,2106
65,88.21,88.22,88.14,88.22,2700
66,88.23,88.23,88.17,88.21,1300
67,88.27,88.32,88.2,88.24,3352
68,88.1517,88.28,88.13,88.28,2800
69,88.17,88.18,88.11,88.15,5697
70,88.31,88.31,88.18,88.18,1748
71,88.48,88.52,88.27,88.29,6187
72,88.57,88.68,88.54,88.54,4550
73,88.55,88.61,88.52,88.6,6383
74,88.53,88.53,88.48,88.49,24800
75,88.49,88.53,88.48,88.52,7943
76,88.5498,88.565,88.5,88.52,2841
77,88.72,88.72,88.565,88.58,4895
78,88.72,88.77,88.68,88.73,2800
79,88.67,88.72,88.64,88.72,5910
80,88.72,88.75,88.65,88.65,6832
81,88.636,88.74,88.58,88.725,13400
82,88.677,88.677,88.65,88.65,900
83,88.63,88.72,88.63,88.69,5300
84,88.64,88.64,88.61,88.64,1700
85,88.62,88.64,88.61,88.6349,1800
86,88.43,88.63,88.43,88.63,6900
87,88.468,88.495,88.46,88.46,4293
88,88.56,88.56,88.42,88.47,3241
89,88.5748,88.605,88.55,88.55,2154
90,88.48,88.555,88.48,88.55,2200
91,88.45,88.53,88.45,88.5,4700
92,88.45,88.51,88.45,88.46,4050
93,88.355,88.44,88.3,88.44,10063
94,88.355,88.36,88.29,88.33,15980
95,88.46,88.5,88.32,88.34,17871
96,88.39,88.52,88.38,88.48,20798
97,88.339,88.38,88.25,88.37,6500
98,88.2,88.33,88.2,88.33,2574
99,88.15,88.215,88.13,88.205,26200
100,88.075,88.1701,88.05,88.17,9058
101,88.1501,88.175,88.11,88.11,7500
102,88.18,88.23,88.17,88.17,16000
103,87.91,88.19,87.85,88.15,34555
104,87.83,87.91,87.77,87.88,24083
105,87.81,87.87,87.81,87.85,3100
106,87.7,87.8,87.62,87.77,24618
107,87.71,87.8,87.68,87.7,8167
108,87.75,87.75,87.7,87.705,5500
109,87.705,87.735,87.69,87.72,2300
110,87.83,87.83,87.7,87.725,4926
111,87.82,87.8596,87.75,87.8047,4315
112,87.81,87.81,87.77,87.78,2200
113,87.76,87.81,87.76,87.809,4900
114,87.89,87.89,87.75,87.75,4532
115,87.83,87.91,87.83,87.91,2800
116,87.95,87.95,87.8,87.83,7650
117,88.03,88.035,87.96,87.96,9915
118,88.03,88.03,87.93,88,5850
119,87.95,88,87.95,88,2010
120,87.85,87.93,87.81,87.93,8400
121,87.835,87.855,87.82,87.845,3500
122,87.7,87.835,87.7,87.835,8600
123,87.84,87.85,87.75,87.76,3800
124,87.9,87.9,87.82,87.82,2300
125,87.94,87.965,87.85,87.875,3500
126,88.013,88.013,87.97,87.97,425
127,87.97,88.02,87.9,88.02,7365
128,87.95,87.97,87.95,87.97,500
129,87.94,88,87.93,87.97,3700
130,87.9564,88.01,87.94,87.94,1309
131,87.99,88.03,87.96,88.01,2200
132,87.97,88.0073,87.97,88.0073,600
133,88.025,88.04,88,88,3460
134,88.13,88.14,88.04,88.04,5554
135,88.08,88.15,88.08,88.1286,2350
136,88.06,88.11,88.06,88.07,1715
137,88.08,88.09,88.03,88.06,18198
138,88.08,88.08,88.05,88.0692,2001
139,88.04,88.0801,88.04,88.0801,2400
140,88.1,88.1,88.04,88.06,3870
141,88.08,88.12,88.07,88.1,1900
142,88.0502,88.1042,88.04,88.1,3401
143,87.97,88.06,87.97,88.06,2762
144,87.97,87.97,87.92,87.94,4900
145,87.95,87.97,87.9,87.945,3340
146,88.01,88.01,87.9345,87.9432,3650
147,87.99,88.02,87.98,88,1300
148,87.98,88.02,87.96,88.02,3643
149,88.02,88.02,87.96,87.98,3170
150,88.05,88.05,87.96,88,14720
151,88,88.07,87.98,88.05,11800
152,87.92,88.02,87.92,87.98,7861
153,87.91,87.96,87.87,87.91,7942
154,87.94,87.95,87.91,87.91,1000
155,87.94,87.94,87.91,87.91,800
156,87.93,87.93,87.896,87.91,500
157,87.942,87.9599,87.905,87.93,852
158,87.93,87.97,87.93,87.96,1100
159,87.97,87.97,87.89,87.92,7863
160,87.87,87.95,87.87,87.95,1615
161,87.83,87.875,87.83,87.875,1000
162,87.8,87.83,87.8,87.83,3559
163,87.77,87.78,87.76,87.77,5300
164,87.95,87.97,87.77,87.775,15400
165,87.9,87.955,87.9,87.955,1400
166,87.93,87.935,87.89,87.89,2500
167,87.99,88.02,87.93,87.93,7135
168,88.06,88.06,88,88.01,2300
169,88.05,88.07,88.01,88.05,4140
170,88.08,88.105,88.01,88.03,4740
171,87.98,88.05,87.98,88.05,2400
172,88.02,88.04,88,88,1230
173,88,88.02,87.99,87.99,2460
174,88.04,88.04,88,88,500
175,88.08,88.13,88.06,88.06,5525
176,88.06,88.1,88.02,88.08,4060
177,88,88.05,88,88.04,10178
178,88.07,88.07,88.015,88.0269,2700
179,88,88.05,87.99,88.04,7840
180,87.935,87.99,87.9,87.97,6425
181,88.09,88.09,87.935,87.935,6700
182,88.06,88.1,88.06,88.08,3200
183,88.09,88.13,88.09,88.1,1226
184,88.09,88.11,88.07,88.1,2200
185,88.03,88.08,88.03,88.08,1000
186,88.01,88.069,88,88.06,5067
187,87.98,88.05,87.98,88.05,1100
188,87.98,88.04,87.98,88.01,3300
189,87.98,88.03,87.96,87.98,4970
190,87.97,88.02,87.92,87.99,10344
191,87.94,88.005,87.93,87.98,6900
192,87.97,87.97,87.92,87.95,3200
193,88.06,88.06,87.98,87.98,2900
194,88.02,88.055,88.02,88.055,1100
195,87.98,88.01,87.98,88,1300
196,88.11,88.11,87.99,87.99,5125
197,88.11,88.11,88.04,88.08,4550
198,88.13,88.13,88.09,88.1014,1400
199,88.17,88.18,88.14,88.14,1900
200,88.18,88.199,88.17,88.17,1391
201,88.2,88.215,88.16,88.16,2517
202,88.2,88.2,88.12,88.16,3400
203,88.15,88.18,88.15,88.18,2232
204,88.11,88.16,88.11,88.15,9000
205,88.17,88.17,88.08,88.1,2762
206,88.26,88.3,88.2,88.2,3487
207,88.22,88.24,88.19,88.23,1300
208,88.27,88.27,88.195,88.195,1900
209,88.27,88.27,88.23,88.25,1200
210,88.3,88.3,88.28,88.28,1397
211,88.28,88.3,88.28,88.29,1227
212,88.29,88.29,88.27,88.28,1300
213,88.215,88.27,88.21,88.26,3800
214,88.195,88.21,88.19,88.21,1500
215,88.2,88.22,88.18,88.22,1800
216,88.16,88.23,88.13,88.22,14151
217,88.18,88.18,88.13,88.15,2200
218,88.11,88.155,88.11,88.13,1400
219,88.035,88.1114,88.03,88.09,6910
220,88.06,88.06,88.02,88.02,2900
221,88.1,88.1,88.04,88.04,2100
222,88.12,88.12,88.11,88.11,600
223,88.045,88.08,88.03,88.08,1623
224,88.01,88.03,88.01,88.03,600
225,87.97,88.0099,87.97,87.9975,3187
226,88.04,88.04,87.98,88,1500
227,88.03,88.03,88.01,88.0104,620
228,88.1,88.1,88,88,14570
229,88.07,88.09,88.07,88.07,1200
230,88.17,88.17,88.03,88.0564,4025
231,88.15,88.17,88.13,88.14,1400
232,88.12,88.13,88.1,88.13,1850
233,88.14,88.14,88.13,88.14,700
234,88.2,88.2,88.16,88.17,4136
235,88.22,88.22,88.21,88.21,600
236,88.33,88.33,88.21,88.23,2400
237,88.25,88.33,88.24,88.33,2731
238,88.27,88.27,88.2,88.23,4385
239,88.26,88.29,88.26,88.27,1950
240,88.26,88.27,88.25,88.25,8700
241,88.205,88.24,88.19,88.24,4200
242,88.16,88.2238,88.16,88.205,11570
243,88.19,88.19,88.13,88.14,3100
244,88.12,88.17,88.11,88.17,1500
245,88.07,88.1,88.07,88.1,1000
246,88.085,88.11,88.06,88.1,5160
247,88.18,88.18,88.07,88.07,3800
248,88.15,88.2,88.13,88.2,2248
249,88.105,88.14,88.08,88.14,3368
250,88.11,88.13,88.09,88.09,1610
251,88.18,88.18,88.11,88.125,12861
252,88.26,88.26,88.175,88.175,1808
253,88.26,88.26,88.1901,88.25,3000
254,88.23,88.265,88.23,88.265,3046
255,88.16,88.2333,88.16,88.2333,12994
256,88.09,88.17,88.09,88.17,1400
257,88.1,88.1,88.075,88.09,2600
258,88.04,88.12,88.04,88.1,4073
259,88.06,88.09,88.06,88.06,2200
260,88.05,88.07,88.04,88.06,2083
261,87.985,88.04,87.985,88.04,1696
262,87.9,87.9928,87.9,87.9908,2150
263,87.86,87.92,87.85,87.91,15413
264,87.93,87.94,87.86,87.87,3566
265,87.92,87.95,87.9,87.93,4600
266,87.84,87.93,87.84,87.93,3900
267,87.87,87.87,87.84,87.86,12621
268,87.875,87.875,87.865,87.87,306
269,87.92,87.92,87.89,87.9,4604
270,87.8846,87.92,87.86,87.92,9609
271,87.94,87.95,87.89,87.89,11579
272,87.935,87.9699,87.92,87.95,4123
273,87.99,87.99,87.95,87.95,2228
274,87.98,87.99,87.95,87.97,1400
275,87.91,87.99,87.9,87.99,6802
276,87.89,87.93,87.89,87.9,12797
277,87.9998,88,87.9,87.9,2910
278,87.9,87.97,87.9,87.97,3000
279,87.96,87.96,87.9101,87.93,1550
280,87.99,87.99,87.94,87.94,3153
281,87.95,88.045,87.95,87.99,9702
282,87.94,87.945,87.92,87.945,600
283,88,88.07,87.96,87.96,7444
284,87.99,88,87.97,88,7300
285,87.995,88.02,87.97,88,6866
286,88.04,88.07,88.01,88.01,5303
287,88.03,88.03,87.98,88.01,2600
288,87.99,88.04,87.99,88.04,400
289,88.03,88.03,88.01,88.01,1100
290,87.97,88.02,87.965,88,3800
291,87.99,88.005,87.99,87.99,1100
292,88,88.05,88,88.02,3989
293,88.03,88.06,88.01,88.01,13652
294,88.05,88.09,87.96,88.05,28250
295,88,88.06,88,88.02,7400
296,88.04,88.04,87.98,88.02,2872
297,87.96,88.01,87.96,88.01,5571
298,88,88.04,87.97,87.97,3800
299,88.11,88.11,87.99,87.99,6785
300,88.065,88.115,88.065,88.115,1000
301,88.235,88.24,88.08,88.08,5755
302,88.15,88.22,88.13,88.22,5413
303,88.26,88.26,88.1501,88.1501,2706
304,88.22,88.27,88.21,88.2408,36968
305,88.24,88.25,88.22,88.24,5338
306,88.21,88.24,88.2,88.21,2847
307,88.21,88.24,88.2,88.21,3520
308,88.2,88.21,88.17,88.202,3294
309,88.23,88.26,88.2,88.2,6713
310,88.16,88.23,88.16,88.23,3325
311,88.13,88.1551,88.11,88.15,2374
312,88.2,88.2,88.11,88.11,3608
313,88.16,88.25,88.16,88.21,3300
314,88.16,88.16,88.16,88.16,300
315,88.22,88.22,88.14,88.14,2748
316,88.21,88.235,88.2,88.23,18519
317,88.32,88.32,88.21,88.21,5409
318,88.29,88.35,88.29,88.33,3182
319,88.28,88.3,88.27,88.29,2648
320,88.27,88.2999,88.26,88.27,2122
321,88.2,88.27,88.2,88.27,1950
322,88.19,88.22,88.17,88.205,1615
323,88.23,88.23,88.17,88.19,3977
324,88.2,88.24,88.2,88.22,1828
325,88.2,88.22,88.16,88.19,2559
326,88.23,88.23,88.2,88.2,1650
327,88.21,88.22,88.2,88.22,3015
328,88.22,88.23,88.21,88.21,2949
329,88.23,88.2414,88.21,88.24,2835
330,88.22,88.23,88.21,88.23,2343
331,88.207,88.24,88.2,88.225,3251
332,88.14,88.23,88.14,88.21,6116
333,88.2,88.2,88.1,88.15,13050
334,88.16,88.2,88.16,88.19,4464
335,88.17,88.2,88.145,88.15,4908
336,88.18,88.18,88.15,88.15,1143
337,88.2,88.205,88.141,88.165,12351
338,88.18,88.1925,88.15,88.1925,3356
339,88.17,88.18,88.15,88.18,3265
340,88.17,88.21,88.15,88.15,12351
341,88.165,88.176,88.14,88.176,9556
342,88.18,88.18,88.14,88.16,8612
343,88.15,88.19,88.13,88.17,16794
344,88.17,88.17,88.12,88.13,6786
345,88.2,88.2,88.18,88.18,1900
346,88.25,88.25,88.18,88.2,1450
347,88.27,88.27,88.22,88.23,1300
348,88.3,88.32,88.27,88.27,1649
349,88.23,88.33,88.23,88.31,7131
350,88.23,88.27,88.21,88.25,7400
351,88.24,88.24,88.21,88.24,1575
352,88.2,88.24,88.19,88.24,1500
353,88.23,88.26,88.21,88.21,2416
354,88.18,88.22,88.16,88.22,2248
355,88.17,88.19,88.17,88.17,1700
356,88.17,88.17,88.16,88.16,787
357,88.16,88.17,88.14,88.15,1535
358,88.22,88.23,88.16,88.16,1951
359,88.23,88.25,88.22,88.22,1858
