PPG,PPG Industries,Materials,8,Specialty Chemicals,27513555258,1137899
a1496928660,107.35,107.35,107.35,107.35,14186
1,107.76,107.94,107.39,107.39,663
2,107.705,107.705,107.46,107.5368,940
3,107.3,107.455,107.27,107.43,1500
4,107.185,107.43,107.15,107.18,500
5,106.84,107.41,106.78,107.29,14086
6,106.98,107.06,106.77,106.84,12401
7,106.895,106.95,106.895,106.95,200
8,106.745,106.88,106.64,106.88,14500
9,106.96,106.96,106.65,106.65,5200
10,107.15,107.19,107.01,107.01,5100
11,107.25,107.34,107.17,107.17,6700
12,107.265,107.47,107.2,107.25,5200
13,107.49,107.51,107.285,107.381,8500
14,107.56,107.59,107.33,107.35,27456
15,107.5371,107.62,107.5371,107.62,712
16,107.53,107.62,107.45,107.525,22460
17,107.495,107.55,107.485,107.55,1300
18,107.44,107.44,107.44,107.44,350
19,107.4462,107.51,107.39,107.45,2865
20,107.34,107.45,107.25,107.45,2300
21,107.18,107.355,107.14,107.31,7900
22,107.17,107.3,107.08,107.175,6492
23,106.9658,107.085,106.9658,107.085,1900
24,107.12,107.13,107,107,1900
25,107.26,107.26,107.06,107.06,7539
26,107.34,107.4,107.29,107.29,1837
27,107.39,107.41,107.39,107.41,600
28,107.4,107.46,107.3839,107.44,1300
29,107.385,107.42,107.31,107.42,1900
31,107.36,107.36,107.36,107.36,100
33,107.31,107.32,107.22,107.32,1700
34,107.23,107.27,107.23,107.27,900
35,107.24,107.29,107.2,107.25,8225
36,107.22,107.28,107.175,107.28,10300
37,107.24,107.28,107.22,107.24,1800
38,107.225,107.24,107.225,107.24,400
39,107.21,107.25,107.2,107.2,3800
40,107.24,107.25,107.16,107.23,13780
41,107.21,107.22,107.21,107.22,1400
42,107.19,107.2,107.115,107.2,8700
44,107.24,107.24,107.15,107.15,4019
45,107.22,107.22,107.195,107.2,770
46,107.22,107.24,107.22,107.24,286
47,107.2275,107.24,107.2,107.2,400
48,107.3,107.31,107.25,107.25,2300
49,107.28,107.28,107.28,107.28,100
50,107.2,107.28,107.2,107.28,2180
51,107.23,107.23,107.15,107.2,2894
52,107.21,107.21,107.21,107.21,300
53,107.23,107.24,107.2,107.2,1000
54,107.27,107.27,107.24,107.24,1200
55,107.2,107.255,107.18,107.24,4400
56,107.225,107.225,107.21,107.21,300
58,107.24,107.24,107.19,107.21,4355
59,107.225,107.23,107.225,107.23,200
60,107.22,107.23,107.22,107.225,2200
61,107.23,107.24,107.21,107.21,2066
62,107.24,107.25,107.21,107.25,3140
64,107.28,107.3,107.23,107.25,4045
65,107.32,107.32,107.32,107.32,200
66,107.31,107.32,107.29,107.32,1700
67,107.22,107.29,107.22,107.29,1600
68,107.2,107.2,107.2,107.2,100
69,107.15,107.21,107.12,107.2,23627
70,107.145,107.15,107.12,107.12,1421
71,107.1,107.19,107.09,107.17,4423
72,107.1175,107.1175,107.1,107.1,700
73,107.1,107.15,107.09,107.12,2198
74,107.12,107.12,107.09,107.1,2200
75,107.16,107.16,107.11,107.11,1600
76,107.2,107.2,107.16,107.16,2424
77,107.21,107.21,107.2,107.2,600
78,107.22,107.23,107.19,107.2,2897
79,107.25,107.27,107.2,107.22,2375
80,107.33,107.33,107.245,107.27,3362
81,107.3,107.35,107.3,107.35,200
82,107.27,107.32,107.27,107.32,1533
83,107.2,107.27,107.2,107.27,712
84,107.15,107.15,107.12,107.13,1180
85,107.09,107.16,107.09,107.14,800
86,107.08,107.1,107.08,107.1,300
87,107.15,107.15,107.1,107.11,900
88,107.2,107.2,107.17,107.18,15500
89,107.25,107.25,107.2,107.2,792
90,107.2825,107.2825,107.21,107.25,1595
91,107.26,107.33,107.26,107.3,600
92,107.31,107.31,107.31,107.31,100
93,107.31,107.31,107.24,107.308,3739
94,107.46,107.46,107.29,107.32,3382
95,107.42,107.46,107.42,107.435,650
96,107.28,107.4,107.28,107.4,1941
97,107.29,107.29,107.29,107.29,120
98,107.42,107.42,107.34,107.34,897
99,107.44,107.44,107.42,107.42,710
100,107.45,107.46,107.42,107.45,2154
101,107.48,107.48,107.45,107.45,520
102,107.48,107.49,107.48,107.49,574
103,107.42,107.49,107.42,107.49,2100
104,107.48,107.48,107.44,107.46,500
105,107.36,107.46,107.31,107.46,1800
106,107.4,107.4,107.335,107.36,1400
107,107.42,107.42,107.42,107.42,100
108,107.39,107.4,107.345,107.4,3089
109,107.4299,107.4299,107.39,107.4,1129
110,107.43,107.43,107.41,107.41,300
111,107.42,107.44,107.41,107.43,3430
112,107.46,107.46,107.39,107.4,2953
113,107.392,107.435,107.392,107.42,835
114,107.44,107.44,107.3986,107.4,1027
115,107.44,107.44,107.44,107.44,200
116,107.34,107.45,107.34,107.45,7700
117,107.347,107.35,107.3201,107.35,1050
118,107.335,107.335,107.32,107.32,300
119,107.27,107.35,107.26,107.35,2069
120,107.17,107.28,107.17,107.28,3400
121,107.19,107.19,107.19,107.19,700
122,107.22,107.22,107.195,107.195,600
123,107.17,107.22,107.16,107.21,8274
124,107.07,107.18,107.07,107.18,6863
125,107.18,107.2,107.08,107.11,5025
126,107.26,107.26,107.18,107.18,2313
127,107.38,107.38,107.28,107.28,1300
128,107.43,107.43,107.39,107.39,1325
129,107.42,107.46,107.41,107.46,2748
130,107.435,107.45,107.435,107.44,1073
131,107.44,107.44,107.435,107.435,353
132,107.44,107.44,107.43,107.43,200
133,107.35,107.435,107.35,107.43,4531
134,107.35,107.365,107.35,107.365,541
135,107.32,107.34,107.27,107.34,4120
136,107.31,107.33,107.29,107.305,2500
137,107.32,107.33,107.32,107.32,800
138,107.32,107.34,107.32,107.32,800
139,107.39,107.39,107.35,107.35,1605
140,107.395,107.41,107.39,107.39,1456
141,107.33,107.38,107.33,107.38,3900
142,107.37,107.38,107.36,107.36,400
143,107.39,107.39,107.38,107.38,1069
144,107.37,107.39,107.35,107.38,2972
145,107.43,107.43,107.4,107.4,500
147,107.34,107.385,107.34,107.385,3120
148,107.45,107.45,107.36,107.37,1301
149,107.46,107.46,107.45,107.45,300
151,107.4,107.44,107.35,107.438,5647
152,107.43,107.43,107.41,107.41,300
153,107.39,107.4,107.34,107.4,3500
154,107.4,107.4,107.4,107.4,200
156,107.355,107.38,107.34,107.38,1700
157,107.33,107.35,107.33,107.34,987
158,107.33,107.36,107.33,107.36,900
159,107.35,107.35,107.35,107.35,300
160,107.35,107.37,107.33,107.37,700
162,107.32,107.32,107.32,107.32,121
163,107.36,107.37,107.33,107.34,2500
164,107.35,107.35,107.35,107.35,624
165,107.33,107.33,107.33,107.33,100
166,107.445,107.445,107.345,107.36,5000
167,107.46,107.46,107.46,107.46,100
168,107.4336,107.4336,107.4336,107.4336,137
169,107.46,107.46,107.46,107.46,100
170,107.53,107.53,107.4598,107.46,1300
171,107.51,107.612,107.51,107.57,1904
174,107.58,107.58,107.58,107.58,100
175,107.62,107.62,107.55,107.55,900
176,107.59,107.66,107.59,107.62,2600
177,107.6375,107.6375,107.6375,107.6375,100
178,107.6,107.64,107.6,107.64,1815
179,107.6,107.65,107.6,107.63,2200
180,107.6,107.61,107.6,107.61,800
181,107.63,107.63,107.61,107.62,500
183,107.58,107.6,107.58,107.6,4000
184,107.57,107.58,107.57,107.58,1027
185,107.57,107.61,107.57,107.6,1974
186,107.56,107.62,107.53,107.62,1902
187,107.54,107.54,107.54,107.54,200
190,107.53,107.54,107.53,107.54,400
191,107.58,107.58,107.58,107.58,100
192,107.56,107.58,107.54,107.58,2500
193,107.53,107.57,107.49,107.57,2850
194,107.51,107.51,107.49,107.49,1310
195,107.5072,107.52,107.5072,107.51,752
196,107.47,107.5,107.47,107.5,3699
197,107.54,107.54,107.49,107.49,1200
199,107.53,107.55,107.53,107.54,1100
201,107.541,107.541,107.541,107.541,100
202,107.59,107.6,107.57,107.5816,812
203,107.57,107.61,107.56,107.59,2376
204,107.69,107.69,107.62,107.62,1915
205,107.66,107.66,107.66,107.66,100
206,107.68,107.68,107.66,107.66,600
207,107.72,107.72,107.72,107.72,300
208,107.74,107.77,107.74,107.77,1100
212,107.74,107.74,107.68,107.71,3743
213,107.71,107.71,107.69,107.7,800
214,107.74,107.74,107.73,107.73,1000
215,107.66,107.77,107.66,107.76,1800
216,107.68,107.68,107.65,107.65,500
217,107.66,107.67,107.64,107.65,1200
220,107.69,107.69,107.66,107.68,1300
221,107.66,107.66,107.61,107.66,2250
224,107.58,107.63,107.58,107.62,1400
225,107.59,107.59,107.57,107.59,800
226,107.63,107.63,107.595,107.61,500
227,107.68,107.68,107.65,107.65,500
228,107.72,107.72,107.72,107.72,415
229,107.58,107.75,107.58,107.75,2702
231,107.53,107.56,107.53,107.56,1400
232,107.51,107.51,107.51,107.51,200
233,107.5,107.5,107.5,107.5,100
234,107.49,107.49,107.49,107.49,100
235,107.49,107.5,107.49,107.49,1556
236,107.485,107.49,107.47,107.47,600
237,107.48,107.51,107.455,107.48,9910
238,107.49,107.49,107.44,107.46,4033
239,107.51,107.51,107.45,107.47,4100
240,107.503,107.503,107.5,107.5,368
241,107.59,107.59,107.5,107.5,2495
242,107.56,107.6,107.54,107.57,8939
244,107.56,107.56,107.56,107.56,400
245,107.62,107.62,107.58,107.58,1500
246,107.62,107.62,107.62,107.62,500
247,107.65,107.65,107.64,107.64,1400
248,107.66,107.69,107.64,107.68,1562
249,107.67,107.67,107.67,107.67,200
250,107.7,107.71,107.7,107.7,600
251,107.71,107.71,107.7059,107.7059,201
252,107.8,107.8,107.74,107.74,2000
253,107.724,107.775,107.724,107.76,2138
254,107.7,107.72,107.7,107.72,860
255,107.72,107.72,107.69,107.69,1300
256,107.71,107.72,107.71,107.72,200
257,107.7,107.7,107.7,107.7,1809
258,107.7,107.71,107.7,107.7,900
259,107.68,107.71,107.66,107.7,6330
260,107.67,107.7,107.66,107.68,1000
261,107.7,107.71,107.63,107.64,2542
262,107.7,107.73,107.7,107.705,2764
263,107.74,107.75,107.63,107.69,40687
264,107.7,107.705,107.7,107.705,800
265,107.71,107.71,107.675,107.68,2830
266,107.67,107.72,107.67,107.7,3097
267,107.65,107.665,107.64,107.665,1587
268,107.64,107.67,107.63,107.63,5081
269,107.65,107.719,107.63,107.63,7164
270,107.655,107.655,107.6403,107.6403,201
271,107.59,107.66,107.59,107.655,5129
272,107.57,107.59,107.57,107.59,1672
273,107.58,107.7003,107.57,107.58,6419
274,107.61,107.66,107.57,107.57,2968
275,107.6,107.62,107.58,107.62,1884
276,107.58,107.58,107.57,107.58,900
277,107.6,107.6,107.56,107.56,941
278,107.61,107.61,107.58,107.58,2000
279,107.61,107.62,107.61,107.62,1700
280,107.61,107.66,107.61,107.61,3231
281,107.61,107.63,107.6,107.62,1808
282,107.63,107.68,107.6,107.64,2984
284,107.56,107.61,107.56,107.61,6441
285,107.58,107.58,107.54,107.555,1340
286,107.61,107.65,107.61,107.61,1700
287,107.58,107.58,107.58,107.58,300
288,107.64,107.64,107.585,107.585,1364
289,107.62,107.65,107.62,107.64,1065
290,107.62,107.62,107.58,107.59,1800
291,107.595,107.62,107.595,107.6,1287
292,107.59,107.6,107.58,107.59,1698
293,107.56,107.59,107.56,107.59,2167
294,107.6299,107.6299,107.555,107.56,2315
295,107.6199,107.6199,107.6,107.6,595
296,107.61,107.61,107.6,107.61,800
297,107.59,107.61,107.59,107.61,2700
298,107.55,107.6,107.54,107.59,3687
299,107.55,107.66,107.53,107.56,8300
302,107.555,107.555,107.555,107.555,100
303,107.55,107.6,107.55,107.58,2617
304,107.57,107.61,107.53,107.55,6810
305,107.61,107.61,107.61,107.61,100
306,107.56,107.58,107.55,107.56,938
308,107.57,107.58,107.55,107.57,2154
309,107.56,107.57,107.56,107.56,665
310,107.585,107.59,107.56,107.57,1719
311,107.6,107.61,107.585,107.585,1032
312,107.66,107.69,107.59,107.59,3300
314,107.6,107.68,107.6,107.68,3286
315,107.55,107.6,107.55,107.6,3422
316,107.62,107.62,107.49,107.52,4240
317,107.56,107.63,107.56,107.62,4200
318,107.61,107.63,107.58,107.62,6338
319,107.58,107.61,107.58,107.61,565
320,107.62,107.64,107.56,107.56,5502
321,107.649,107.649,107.61,107.61,361
322,107.62,107.65,107.61,107.62,3943
323,107.62,107.62,107.595,107.595,1600
324,107.61,107.68,107.605,107.61,2300
325,107.64,107.64,107.61,107.61,1100
326,107.64,107.69,107.64,107.68,2100
327,107.617,107.617,107.617,107.617,110
328,107.67,107.67,107.64,107.65,1304
329,107.66,107.7,107.66,107.7,1500
330,107.66,107.665,107.66,107.665,977
331,107.66,107.66,107.635,107.64,1409
332,107.64,107.667,107.64,107.667,678
333,107.71,107.71,107.64,107.64,3119
334,107.72,107.72,107.68,107.71,2512
335,107.74,107.74,107.73,107.73,300
337,107.68,107.73,107.68,107.71,2490
338,107.72,107.72,107.7,107.7,300
340,107.66,107.69,107.64,107.69,1590
341,107.66,107.66,107.63,107.65,1500
342,107.7,107.72,107.68,107.68,700
343,107.695,107.75,107.68,107.75,2246
344,107.67,107.68,107.66,107.68,700
345,107.7,107.7,107.7,107.7,175
346,107.765,107.77,107.76,107.76,1550
347,107.77,107.77,107.77,107.77,100
348,107.73,107.74,107.69,107.74,2910
349,107.73,107.74,107.71,107.74,1200
350,107.73,107.74,107.7,107.7,1662
351,107.74,107.74,107.74,107.74,529
352,107.76,107.76,107.71,107.73,1855
353,107.78,107.78,107.75,107.75,700
354,107.79,107.79,107.76,107.77,2061
355,107.79,107.8,107.79,107.8,800
356,107.79,107.79,107.79,107.79,100
357,107.78,107.79,107.78,107.79,918
358,107.74,107.77,107.74,107.77,1419
359,107.74,107.76,107.73,107.74,2016
360,107.74,107.76,107.74,107.74,845
361,107.76,107.79,107.735,107.735,3200
362,107.84,107.84,107.76,107.76,1736
364,107.83,107.83,107.82,107.82,200
365,107.84,107.84,107.83,107.83,1200
366,107.82,107.86,107.82,107.86,1500
367,107.82,107.82,107.77,107.81,28200
368,107.81,107.82,107.81,107.82,600
369,107.81,107.83,107.79,107.82,2979
370,107.84,107.88,107.8,107.81,4561
371,107.81,107.86,107.81,107.86,11177
372,107.8,107.81,107.8,107.81,900
373,107.82,107.82,107.79,107.81,3464
374,107.76,107.86,107.75,107.83,14000
375,107.82,107.85,107.7581,107.7581,5047
376,107.81,107.84,107.8,107.82,2531
377,107.81,107.84,107.79,107.8,4365
378,107.88,107.88,107.84,107.84,1066
379,107.82,107.87,107.8,107.87,4368
380,107.88,107.88,107.82,107.83,4560
381,107.9,107.9,107.84,107.85,19552
382,107.94,107.94,107.87,107.89,2500
383,107.95,107.95,107.91,107.94,3200
384,107.93,107.96,107.91,107.96,10194
385,107.93,107.93,107.9,107.91,5747
386,107.95,107.97,107.93,107.93,7535
387,107.91,107.95,107.9,107.92,10266
388,107.97,107.97,107.895,107.91,13176
389,107.929,108,107.9,107.97,23164
