EOG,EOG Resources,Energy,3,Oil & Gas Exploration & Production,48014808899,3207611
a1504013400,82.13,82.62,82.12,82.62,26089
1,82.33,82.63,82.12,82.15,10765
2,82.38,82.575,82.23,82.535,2670
3,82.39,82.48,82.18,82.34,11900
4,82.56,82.62,82.38,82.44,17219
5,82.56,82.61,82.515,82.56,2200
6,82.47,82.51,82.4,82.5,4800
7,82.5,82.56,82.38,82.44,7393
8,82.62,82.62,82.5,82.54,3658
9,82.4,82.65,82.4,82.64,11110
10,82.54,82.54,82.37,82.37,8099
11,82.71,82.8,82.54,82.54,19300
12,82.46,82.7005,82.46,82.7005,7770
13,82.55,82.62,82.53,82.53,9955
14,82.6,82.6,82.46,82.54,3344
15,82.51,82.65,82.49,82.59,3500
16,82.49,82.53,82.41,82.52,30045
17,82.41,82.52,82.41,82.49,4795
18,82.46,82.49,82.38,82.4175,3750
19,82.515,82.55,82.45,82.48,9028
20,82.43,82.54,82.41,82.54,4858
21,82.36,82.38,82.31,82.38,4546
22,82.38,82.38,82.3,82.38,3500
23,82.395,82.43,82.35,82.35,2850
24,82.42,82.46,82.38,82.42,3942
25,82.43,82.46,82.38,82.41,2750
26,82.49,82.5,82.41,82.43,2300
27,82.5,82.55,82.47,82.53,3025
28,82.51,82.51,82.47,82.49,2670
29,82.51,82.51,82.46,82.49,3012
30,82.57,82.61,82.53,82.53,7514
31,82.6,82.615,82.55,82.56,5060
32,82.62,82.66,82.6,82.62,10255
33,82.6,82.65,82.57,82.6,7714
34,82.59,82.64,82.58,82.6,3450
35,82.59,82.61,82.55,82.57,5404
36,82.51,82.57,82.51,82.55,5462
37,82.44,82.52,82.4,82.52,7644
38,82.48,82.48,82.43,82.4349,1900
39,82.47,82.49,82.44,82.46,2508
40,82.39,82.49,82.35,82.49,5079
41,82.32,82.4,82.31,82.38,3950
42,82.33,82.37,82.3,82.32,4132
43,82.32,82.37,82.26,82.37,6303
44,82.2072,82.31,82.2072,82.29,5624
45,82.24,82.28,82.23,82.23,7660
46,82.24,82.24,82.14,82.23,6240
47,82.2675,82.3,82.21,82.22,4069
48,82.27,82.32,82.25,82.26,7001
49,82.28,82.3,82.27,82.27,3550
50,82.29,82.29,82.27,82.27,1400
51,82.26,82.34,82.26,82.3068,2380
52,82.305,82.305,82.24,82.265,3800
53,82.22,82.3225,82.22,82.3225,3590
54,82.18,82.201,82.14,82.2,6951
55,82.13,82.19,82.13,82.165,3050
56,82.145,82.1517,82.12,82.15,2850
57,82.129,82.17,82.1,82.15,2711
58,82.13,82.13,82.11,82.13,1500
59,82.11,82.19,82.11,82.13,5651
60,82.13,82.15,82.11,82.12,26970
61,82.17,82.17,82.12,82.15,4997
62,82.11,82.2,82.11,82.17,5348
63,82.14,82.14,82.1,82.11,2900
64,82.125,82.16,82.12,82.16,1300
65,82.03,82.12,82.03,82.11,6660
66,82.05,82.09,82.02,82.02,6715
67,82.03,82.04,82.03,82.03,5000
68,82.02,82.05,81.99,82.04,10752
69,82.06,82.08,82,82.01,5481
70,82.09,82.125,82.08,82.08,3110
71,82.08,82.08,82.04,82.07,4505
72,82.14,82.14,82.06,82.08,11637
73,82.18,82.18,82.12,82.14,3304
74,82.54,82.54,82.19,82.19,13907
75,82.44,82.53,82.42,82.52,4950
76,82.42,82.55,82.42,82.44,6321
77,82.39,82.43,82.34,82.43,5625
78,82.265,82.37,82.25,82.36,1609
79,82.24,82.24,82.14,82.24,5565
80,82.26,82.32,82.221,82.25,3215
81,82.25,82.2501,82.22,82.23,1800
82,82.23,82.32,82.23,82.28,4600
83,82.18,82.235,82.18,82.235,2536
84,82.22,82.23,82.2,82.2,1700
85,82.229,82.24,82.2,82.2259,3373
86,82.25,82.26,82.22,82.22,5335
87,82.2554,82.2554,82.17,82.23,4148
88,82.27,82.29,82.22,82.23,4539
89,82.2,82.29,82.19,82.29,4695
90,82.23,82.26,82.21,82.21,2050
91,82.35,82.37,82.27,82.27,6644
92,82.2803,82.37,82.27,82.3513,5059
93,82.23,82.31,82.2,82.31,3840
94,82.3,82.3,82.22,82.22,1823
95,82.33,82.33,82.24,82.29,4200
96,82.35,82.36,82.32,82.35,1789
97,82.34,82.37,82.34,82.36,2327
98,82.2753,82.34,82.26,82.34,1150
99,82.34,82.35,82.27,82.27,2107
100,82.33,82.36,82.31,82.32,1900
101,82.38,82.38,82.31,82.33,4759
102,82.36,82.36,82.33,82.36,3202
103,82.304,82.39,82.304,82.39,4908
104,82.2796,82.31,82.2796,82.31,1306
105,82.22,82.27,82.22,82.27,3650
106,82.2599,82.27,82.23,82.23,2101
107,82.23,82.25,82.2,82.249,3540
108,82.1939,82.24,82.18,82.22,2237
109,82.131,82.24,82.131,82.18,5507
110,82.16,82.16,82.13,82.13,2250
111,82.15,82.15,82.12,82.15,1910
112,82.205,82.21,82.16,82.16,1600
113,82.2229,82.25,82.21,82.21,3600
114,82.21,82.24,82.21,82.215,1333
115,82.23,82.24,82.2,82.23,3393
116,82.22,82.24,82.1925,82.2254,3000
117,82.2,82.2399,82.2,82.2399,900
118,82.25,82.26,82.2,82.21,7654
119,82.28,82.31,82.25,82.26,3856
120,82.28,82.28,82.2487,82.28,2560
121,82.23,82.28,82.23,82.25,2600
122,82.1901,82.255,82.1901,82.24,2933
123,82.15,82.2,82.15,82.19,1800
124,82.17,82.1888,82.17,82.18,722
125,82.27,82.27,82.2,82.2,2500
126,82.24,82.3,82.24,82.28,4081
127,82.27,82.27,82.231,82.245,1350
128,82.23,82.27,82.23,82.26,2100
129,82.25,82.26,82.24,82.24,1200
130,82.22,82.2523,82.22,82.23,898
131,82.27,82.27,82.23,82.23,1900
132,82.32,82.32,82.28,82.28,880
133,82.36,82.36,82.31,82.31,1700
134,82.35,82.37,82.321,82.36,3650
135,82.2899,82.34,82.27,82.32,2100
136,82.27,82.3,82.26,82.27,2065
137,82.38,82.38,82.26,82.26,3600
138,82.36,82.38,82.36,82.37,929
139,82.41,82.44,82.39,82.39,8684
140,82.42,82.42,82.38,82.41,4500
141,82.48,82.49,82.42,82.42,1600
142,82.4732,82.51,82.47,82.51,2784
143,82.46,82.465,82.46,82.46,1300
144,82.44,82.46,82.44,82.45,1100
145,82.43,82.46,82.43,82.45,9002
146,82.5,82.5,82.435,82.435,4076
147,82.41,82.49,82.41,82.49,3750
148,82.43,82.43,82.41,82.43,1900
149,82.41,82.45,82.41,82.45,2474
150,82.35,82.42,82.34,82.42,4190
151,82.35,82.36,82.35,82.35,1000
152,82.39,82.39,82.34,82.34,6875
153,82.4,82.42,82.38,82.41,3672
154,82.41,82.42,82.3801,82.42,1919
155,82.37,82.37,82.37,82.37,600
156,82.34,82.4,82.34,82.38,3442
157,82.34,82.36,82.33,82.34,3938
158,82.345,82.35,82.33,82.33,1900
159,82.38,82.38,82.345,82.345,5079
160,82.35,82.39,82.35,82.38,2378
161,82.28,82.35,82.28,82.34,3750
162,82.28,82.2867,82.24,82.2867,6050
163,82.28,82.3,82.28,82.29,1100
164,82.23,82.27,82.23,82.27,1000
165,82.33,82.33,82.25,82.25,4400
166,82.31,82.33,82.29,82.32,10654
167,82.36,82.36,82.32,82.32,1200
168,82.35,82.37,82.34,82.36,67868
169,82.35,82.37,82.34,82.35,12738
170,82.39,82.39,82.34,82.36,7614
171,82.4,82.41,82.39,82.39,8312
172,82.38,82.4083,82.38,82.4,2694
173,82.4,82.4,82.37,82.37,2650
174,82.4,82.4,82.3725,82.395,7500
175,82.4,82.4,82.39,82.4,400
176,82.4,82.41,82.38,82.38,2700
177,82.42,82.4496,82.42,82.43,2402
178,82.4,82.42,82.38,82.41,3025
179,82.45,82.45,82.39,82.41,2124
180,82.44,82.47,82.44,82.47,2400
181,82.505,82.505,82.44,82.44,2110
182,82.488,82.52,82.47,82.51,4398
183,82.5125,82.5125,82.46,82.49,5202
184,82.52,82.54,82.5,82.515,1999
185,82.532,82.55,82.53,82.53,2075
186,82.54,82.55,82.54,82.54,2300
187,82.53,82.54,82.52,82.54,2650
188,82.54,82.54,82.51,82.53,2500
189,82.58,82.58,82.52,82.53,2100
190,82.61,82.61,82.58,82.58,1500
191,82.6,82.6125,82.59,82.6,1800
192,82.6,82.63,82.6,82.61,2000
193,82.585,82.59,82.565,82.59,1728
194,82.59,82.61,82.58,82.59,1600
195,82.67,82.67,82.5901,82.5901,3180
196,82.6475,82.655,82.64,82.65,1100
197,82.6877,82.6957,82.66,82.66,3980
198,82.72,82.72,82.69,82.69,2135
199,82.73,82.77,82.72,82.73,2458
200,82.76,82.78,82.72,82.72,1900
201,82.72,82.74,82.71,82.74,6928
202,82.695,82.735,82.695,82.72,2350
203,82.72,82.72,82.68,82.695,1600
204,82.74,82.743,82.72,82.743,6500
205,82.75,82.75,82.73,82.73,1100
206,82.74,82.745,82.73,82.74,4300
207,82.75,82.75,82.73,82.74,500
208,82.77,82.78,82.73,82.73,1800
209,82.79,82.79,82.77,82.77,2100
210,82.795,82.81,82.78,82.78,700
211,82.92,82.92,82.8,82.81,3251
212,82.88,82.91,82.87,82.91,5854
213,82.91,82.925,82.9,82.9,1300
214,82.91,82.94,82.905,82.91,2711
215,82.91,82.93,82.9,82.93,2000
216,82.92,82.93,82.8975,82.91,3000
217,82.91,82.92,82.89,82.92,900
218,82.91,82.94,82.9,82.91,4069
219,82.94,82.99,82.915,82.94,6085
220,82.96,82.9743,82.95,82.95,1764
221,83,83,82.94,82.9596,3735
222,82.96,83,82.95,83,3800
223,82.96,82.98,82.95,82.97,2956
224,82.975,82.98,82.96,82.96,1953
225,82.97,82.99,82.95,82.96,8507
226,82.95,82.96,82.94,82.96,4594
227,82.9475,82.96,82.93,82.931,3556
228,83.01,83.01,82.94,82.94,3881
229,83.02,83.03,83.01,83.03,1416
230,83.06,83.075,83.02,83.02,3700
231,83.075,83.075,83.07,83.07,400
232,83.05,83.09,83.03,83.09,3200
233,83.04,83.07,83.02,83.07,1200
234,83.05,83.06,83.04,83.04,1800
235,83.04,83.06,83.04,83.05,1852
236,83,83.03,82.99,83.03,9479
237,83.01,83.01,82.95,83,4573
238,82.97,83.02,82.97,83.01,2036
239,83.02,83.03,82.97,82.9825,4850
240,83.01,83.01,82.98,83.0061,2315
241,83,83,82.995,82.995,200
242,83,83.02,82.99,83.02,1609
243,83,83.028,83,83.01,1824
244,83,83.02,82.99,83,4374
245,83.03,83.04,83.02,83.02,1450
246,83.02,83.04,83.02,83.03,600
247,83.05,83.07,83.03,83.04,3300
248,83.07,83.07,83.05,83.055,1700
249,83.03,83.05,83.03,83.05,1300
250,83.05,83.06,83.03,83.045,1700
251,83.01,83.02,83.01,83.02,735
252,82.97,83.01,82.97,83.01,3167
253,82.98,82.98,82.97,82.97,800
254,82.95,82.99,82.95,82.97,3930
255,82.92,82.952,82.92,82.95,2100
256,82.955,82.97,82.93,82.93,2300
257,82.96,82.965,82.95,82.96,500
258,83.03,83.0386,82.97,82.97,1776
259,83.04,83.045,83.02,83.02,1660
260,83.03,83.05,83.02,83.05,2800
261,83.065,83.08,83.0294,83.0294,1950
262,82.96,83.05,82.96,83.05,5858
263,82.967,82.9752,82.94,82.9752,5170
264,82.95,82.97,82.95,82.95,5189
265,82.955,82.97,82.94,82.96,1650
266,82.93,82.96,82.9,82.94,4699
267,82.9316,82.9416,82.91,82.93,1480
268,82.92,82.92,82.89,82.91,2388
269,82.92,82.93,82.91,82.92,1800
270,82.88,82.91,82.88,82.9,3305
271,82.889,82.889,82.87,82.88,525
272,82.96,82.96,82.88,82.88,3499
273,82.87,82.94,82.85,82.94,3923
274,82.865,82.89,82.86,82.88,21932
275,82.87,82.89,82.855,82.86,2653
276,82.875,82.88,82.855,82.86,2400
277,82.92,82.92,82.88,82.88,4343
278,82.875,82.89,82.87,82.89,4500
279,82.9001,82.91,82.86,82.887,3389
280,82.85,82.9101,82.85,82.9101,4050
281,82.85,82.86,82.82,82.84,3000
282,82.83,82.86,82.79,82.86,2800
283,82.87,82.87,82.84,82.85,1000
284,82.865,82.865,82.85,82.85,2600
285,82.89,82.91,82.865,82.865,4095
286,82.91,82.91,82.89,82.89,1100
287,82.925,82.93,82.87,82.92,28000
288,82.87,82.91,82.86,82.91,3400
289,82.88,82.9,82.87,82.87,2500
290,82.91,82.91,82.88,82.88,1800
291,82.96,82.96,82.92,82.92,2300
292,82.98,83,82.96,82.96,3622
293,82.94,82.97,82.92,82.97,3394
294,82.9,82.935,82.89,82.935,2550
295,82.87,82.89,82.85,82.89,2600
296,82.925,82.925,82.88,82.88,1700
297,82.91,82.915,82.89,82.9,3701
298,82.97,82.97,82.91,82.91,1851
299,82.97,82.99,82.97,82.98,3650
300,82.975,82.99,82.96,82.98,909
301,83,83.01,82.9732,82.975,2114
302,83.05,83.05,83.01,83.02,2552
303,83.05,83.05,83.04,83.05,1000
304,83.09,83.1,83.05,83.06,6174
305,83.06,83.08,83.05,83.08,2600
306,83.11,83.11,83.05,83.05,3595
307,83.125,83.13,83.08,83.11,3900
308,83.16,83.16,83.12,83.125,3200
309,83.14,83.17,83.14,83.17,1595
310,83.105,83.13,83.08,83.13,4825
311,83.11,83.16,83.11,83.11,3206
312,83.1,83.11,83.0732,83.11,4252
313,83.09,83.105,83.09,83.1,776
314,83.12,83.12,83.085,83.085,1916
315,83.15,83.15,83.11,83.12,2600
316,83.12,83.16,83.12,83.14,3476
317,83.11,83.15,83.1,83.1185,6394
318,83.1,83.11,83.09,83.11,1200
319,83.1,83.11,83.09,83.1,3817
320,83.085,83.095,83.07,83.095,3473
321,83.105,83.11,83.09,83.09,2550
322,83.125,83.13,83.1175,83.12,800
323,83.1,83.125,83.09,83.125,4499
324,83.11,83.12,83.09,83.09,3099
325,83.12,83.12,83.1,83.1075,400
326,83.11,83.14,83.1,83.12,3000
327,83.14,83.14,83.1,83.11,3199
328,83.18,83.19,83.15,83.15,2214
329,83.165,83.1805,83.165,83.1805,828
330,83.21,83.215,83.165,83.165,2652
331,83.23,83.24,83.21,83.22,2800
332,83.195,83.24,83.19,83.24,8461
333,83.17,83.2,83.17,83.195,7101
334,83.155,83.18,83.155,83.17,3345
335,83.16,83.18,83.16,83.16,2400
336,83.14,83.16,83.14,83.15,6231
337,83.15,83.15,83.13,83.14,2061
338,83.13,83.155,83.13,83.155,4455
339,83.12,83.15,83.12,83.14,2927
340,83.15,83.16,83.13,83.13,4225
341,83.145,83.155,83.1425,83.155,1575
342,83.2,83.21,83.145,83.15,10227
343,83.19,83.2,83.18,83.19,7218
344,83.165,83.185,83.16,83.185,3430
345,83.13,83.165,83.13,83.165,4258
346,83.14,83.145,83.12,83.13,4373
347,83.14,83.15,83.13,83.14,1576
348,83.125,83.15,83.12,83.14,3474
349,83.15,83.15,83.12,83.13,4006
350,83.07,83.15,83.07,83.15,6972
351,83.1,83.12,83.08,83.085,4085
352,83.08,83.09,83.03,83.09,6935
353,83.08,83.09,83.06,83.08,3900
354,83.085,83.1,83.06,83.1,4413
355,83.1,83.12,83.08,83.09,5505
356,83.06,83.1,83.04,83.1,6784
357,83.05,83.06,83,83.06,5200
358,83.07,83.08,83.05,83.05,5831
359,83.06,83.07,83.04,83.07,3825
360,83.065,83.0805,83.05,83.05,4382
361,83.09,83.12,83.065,83.065,6403
362,83.07,83.1,83.05,83.095,6071
363,83.09,83.09,83.07,83.07,4791
364,83.12,83.14,83.1,83.1,6328
365,83.09,83.14,83.08,83.1156,5515
366,83.1,83.11,83.07,83.085,7850
367,83.125,83.13,83.09,83.095,6490
368,83.1,83.13,83.08,83.125,6928
369,83.079,83.11,83.07,83.1,4406
370,83.1,83.105,83.07,83.075,6951
371,83.08,83.11,83.06,83.09,6566
372,83.06,83.09,83.06,83.08,4267
373,82.99,83.06,82.98,83.06,4700
374,83.04,83.04,82.99,82.99,9101
375,83.01,83.04,82.99,83.04,12455
376,83,83.035,82.99,83.005,12899
377,83.03,83.04,83,83.005,7312
378,83.015,83.035,83.015,83.03,5874
379,82.995,83.02,82.99,83.01,9445
380,83.02,83.03,82.99,82.99,10181
381,83.02,83.03,83,83.02,9535
382,83.01,83.03,83,83.025,14318
383,83.07,83.09,83.02,83.02,10965
384,83.05,83.08,83.05,83.08,12038
385,83.06,83.08,83.01,83.04,21201
386,83.095,83.11,83.055,83.06,18689
387,83.095,83.11,83.09,83.095,12550
388,83.09,83.1,83.08,83.09,22121
389,83.135,83.145,83.09,83.09,25262
390,83.13,83.23,83.12,83.135,55506
