PPG,PPG Industries,Materials,8,Specialty Chemicals,26637991042,1580197
a1504013400,103.45,103.45,103.45,103.45,6804
1,103.446,103.56,103.21,103.22,706
2,103.2,103.27,103.2,103.27,300
4,103.25,103.26,103.25,103.26,600
5,103.23,103.23,103.2,103.21,400
6,103.19,103.32,103.0301,103.32,5300
7,103.2601,103.29,103.2,103.2,700
8,103.34,103.34,103.34,103.34,100
9,103.19,103.3,103.19,103.3,600
10,103.145,103.145,103.145,103.145,100
11,103.37,103.3999,103.25,103.25,2981
12,103.46,103.46,103.29,103.41,1300
13,103.3,103.51,103.26,103.47,2545
14,103.36,103.37,103.36,103.37,316
15,103.3,103.32,103.3,103.32,300
16,103.355,103.39,103.28,103.3,1200
17,103.35,103.39,103.35,103.39,1111
18,103.305,103.37,103.3,103.37,2464
19,103.37,103.37,103.33,103.33,1720
21,103.39,103.39,103.37,103.38,346
22,103.3,103.38,103.3,103.37,11150
23,103.36,103.36,103.3,103.33,2224
24,103.33,103.355,103.31,103.355,2329
25,103.38,103.38,103.36,103.36,1650
26,103.48,103.49,103.37,103.39,1100
27,103.49,103.49,103.49,103.49,300
28,103.45,103.51,103.45,103.51,1132
29,103.45,103.45,103.42,103.42,200
30,103.42,103.45,103.42,103.45,600
31,103.47,103.49,103.47,103.47,1204
32,103.43,103.45,103.43,103.45,538
34,103.46,103.48,103.46,103.48,800
35,103.445,103.47,103.43,103.45,1400
36,103.4,103.42,103.4,103.42,600
37,103.39,103.4,103.39,103.4,800
38,103.43,103.46,103.42,103.43,3047
39,103.42,103.42,103.405,103.405,924
40,103.39,103.425,103.39,103.425,2200
41,103.37,103.41,103.36,103.4,10000
42,103.315,103.37,103.315,103.36,13107
43,103.385,103.39,103.34,103.34,2046
44,103.44,103.44,103.38,103.38,1900
45,103.46,103.47,103.45,103.45,900
46,103.49,103.49,103.46,103.48,881
48,103.481,103.53,103.481,103.5,3609
49,103.49,103.495,103.48,103.48,2400
50,103.52,103.52,103.49,103.5,1200
51,103.5,103.59,103.5,103.54,3003
52,103.54,103.55,103.5,103.51,1000
53,103.545,103.58,103.545,103.57,6279
54,103.57,103.59,103.57,103.57,1000
55,103.56,103.64,103.56,103.57,5558
56,103.57,103.57,103.52,103.56,600
57,103.56,103.57,103.56,103.57,1248
58,103.69,103.7,103.57,103.57,6018
59,103.67,103.67,103.645,103.67,701
60,103.6465,103.66,103.62,103.62,337
61,103.64,103.67,103.635,103.67,2011
62,103.65,103.675,103.64,103.66,1119
63,103.64,103.64,103.64,103.64,100
64,103.69,103.69,103.63,103.63,2008
65,103.64,103.66,103.64,103.66,601
66,103.645,103.66,103.63,103.64,3058
67,103.66,103.67,103.63,103.63,4590
68,103.67,103.73,103.66,103.66,2470
69,103.61,103.665,103.61,103.65,2900
70,103.58,103.62,103.58,103.61,1598
71,103.525,103.61,103.515,103.61,1800
72,103.54,103.54,103.51,103.54,1600
73,103.57,103.57,103.54,103.54,300
74,103.66,103.71,103.55,103.55,3500
75,103.67,103.67,103.66,103.67,1054
77,103.67,103.6991,103.67,103.68,3206
78,103.65,103.66,103.64,103.66,1500
79,103.61,103.63,103.61,103.63,400
80,103.63,103.64,103.61,103.61,770
81,103.65,103.67,103.645,103.66,1682
82,103.66,103.66,103.66,103.66,500
83,103.69,103.69,103.69,103.69,100
84,103.69,103.69,103.65,103.66,2166
85,103.7,103.71,103.7,103.7,1300
86,103.69,103.69,103.69,103.69,554
87,103.71,103.71,103.68,103.68,200
88,103.67,103.68,103.67,103.68,1301
89,103.68,103.7,103.68,103.68,1923
90,103.69,103.69,103.67,103.68,700
91,103.7,103.74,103.69,103.7,4911
92,103.67,103.72,103.67,103.72,1100
93,103.66,103.685,103.66,103.685,600
94,103.67,103.67,103.6622,103.6622,739
95,103.68,103.68,103.67,103.68,900
96,103.75,103.75,103.7,103.7,800
97,103.79,103.79,103.75,103.75,2282
98,103.8,103.8,103.77,103.79,1623
99,103.82,103.82,103.77,103.79,1614
100,103.81,103.82,103.81,103.82,502
101,103.81,103.81,103.8,103.8071,1354
102,103.84,103.84,103.82,103.82,311
103,103.79,103.81,103.79,103.81,2377
106,103.79,103.82,103.79,103.81,3099
107,103.77,103.79,103.77,103.79,900
108,103.725,103.77,103.725,103.77,1202
109,103.66,103.72,103.66,103.72,1300
110,103.67,103.67,103.64,103.66,1300
111,103.69,103.7,103.67,103.67,800
112,103.7,103.71,103.7,103.71,700
114,103.69,103.72,103.69,103.72,1801
115,103.68,103.7,103.68,103.69,900
116,103.66,103.68,103.65,103.68,1409
117,103.65,103.65,103.65,103.65,200
118,103.71,103.75,103.66,103.66,3554
119,103.73,103.74,103.72,103.72,915
120,103.73,103.73,103.71,103.72,2366
121,103.73,103.73,103.72,103.72,800
122,103.71,103.73,103.71,103.72,1000
123,103.7,103.7,103.7,103.7,400
124,103.65,103.7,103.65,103.7,2000
125,103.61,103.65,103.61,103.65,1600
126,103.64,103.64,103.63,103.63,950
127,103.64,103.64,103.64,103.64,365
128,103.65,103.6598,103.65,103.6598,2013
129,103.66,103.66,103.66,103.66,452
130,103.68,103.69,103.67,103.67,900
131,103.72,103.72,103.68,103.68,1661
132,103.74,103.75,103.73,103.75,1000
133,103.74,103.75,103.74,103.75,1300
134,103.735,103.74,103.73,103.74,1021
135,103.74,103.74,103.74,103.74,400
136,103.715,103.74,103.715,103.74,1400
137,103.76,103.76,103.725,103.73,2100
138,103.79,103.79,103.77,103.77,1800
139,103.78,103.81,103.78,103.81,1587
140,103.78,103.805,103.7675,103.79,4300
141,103.77,103.8,103.77,103.79,1200
142,103.785,103.785,103.785,103.785,120
143,103.775,103.785,103.77,103.78,1715
144,103.81,103.81,103.775,103.775,1232
145,103.79,103.81,103.79,103.8,1500
146,103.81,103.81,103.79,103.79,714
147,103.79,103.815,103.78,103.81,2100
148,103.78,103.78,103.78,103.78,300
149,103.765,103.78,103.765,103.78,2215
150,103.73,103.78,103.73,103.77,3100
151,103.73,103.73,103.71,103.72,1400
153,103.735,103.735,103.735,103.735,100
154,103.67,103.73,103.67,103.73,1661
155,103.68,103.69,103.66,103.66,1200
156,103.72,103.72,103.69,103.69,1200
157,103.75,103.75,103.72,103.72,1000
158,103.751,103.76,103.7497,103.75,1343
159,103.79,103.79,103.76,103.76,900
160,103.79,103.79,103.79,103.79,100
161,103.79,103.8,103.79,103.8,429
162,103.8,103.8,103.8,103.8,100
163,103.765,103.78,103.765,103.78,2900
164,103.77,103.79,103.761,103.77,3950
165,103.74,103.77,103.74,103.77,1228
166,103.75,103.75,103.71,103.73,2197
167,103.74,103.74,103.74,103.74,100
168,103.74,103.75,103.74,103.75,200
169,103.74,103.74,103.73,103.74,300
170,103.78,103.79,103.75,103.75,800
172,103.83,103.83,103.8,103.8,2000
173,103.85,103.86,103.82,103.825,2454
174,103.91,103.91,103.87,103.87,1800
175,103.87,103.89,103.87,103.89,1900
176,103.91,103.91,103.87,103.87,900
177,103.93,103.935,103.92,103.92,1100
179,103.97,103.97,103.94,103.94,1100
180,103.92,103.94,103.92,103.94,2200
181,103.92,103.92,103.9161,103.9161,600
182,103.94,103.94,103.92,103.92,800
183,103.96,103.96,103.96,103.96,300
184,103.96,103.97,103.95,103.96,1800
185,103.98,103.98,103.97,103.97,800
186,103.97,104,103.97,103.99,2396
187,103.98,103.98,103.98,103.98,300
188,104.01,104.01,104.01,104.01,500
189,103.99,104,103.98,104,1710
191,103.98,104.005,103.98,104,1800
192,103.98,103.98,103.98,103.98,300
193,103.94,103.98,103.94,103.98,2600
194,103.9,103.94,103.9,103.94,1100
195,103.9087,103.92,103.9,103.91,3698
196,103.89,103.9,103.89,103.9,400
197,103.86,103.86,103.86,103.86,300
198,103.89,103.89,103.87,103.87,500
199,103.94,103.95,103.92,103.92,1100
201,103.96,103.99,103.96,103.99,1500
202,103.96,103.96,103.95,103.95,700
203,103.97,103.97,103.96,103.96,200
204,103.97,103.97,103.96,103.96,200
205,103.965,103.97,103.96,103.96,700
206,103.96,103.98,103.96,103.9602,3925
207,103.96,103.965,103.96,103.965,200
208,103.97,103.97,103.96,103.96,750
209,103.92,103.96,103.92,103.96,896
211,103.97,103.97,103.93,103.95,1615
213,103.97,103.97,103.96,103.96,701
214,103.9599,103.97,103.9599,103.97,1100
216,103.969,103.969,103.955,103.955,400
217,103.96,103.96,103.96,103.96,100
218,103.95,103.96,103.94,103.96,3858
219,103.95,103.95,103.95,103.95,200
220,103.965,103.98,103.96,103.96,3916
222,103.98,103.98,103.98,103.98,100
223,103.96,103.98,103.96,103.98,400
224,103.94,103.96,103.93,103.95,1052
225,103.92,103.94,103.92,103.94,1152
227,103.92,103.93,103.9,103.9,2550
228,103.95,103.95,103.94,103.94,900
229,103.97,103.97,103.95,103.97,600
230,103.97,103.97,103.955,103.955,500
231,103.97,103.97,103.965,103.97,500
232,103.965,103.97,103.96,103.97,600
233,103.95,103.97,103.93,103.97,4583
234,104,104,103.96,103.96,3101
235,103.99,103.99,103.99,103.99,100
236,103.97,104,103.97,104,2786
237,103.965,103.965,103.965,103.965,200
238,103.94,103.97,103.94,103.9657,2606
239,103.99,104.02,103.89,103.9,3597
240,103.96,103.995,103.96,103.98,800
241,104.01,104.01,103.98,103.98,856
242,104.02,104.02,104.015,104.02,500
244,104.01,104.02,104,104.02,2374
245,104.01,104.03,104,104.005,2300
247,104.01,104.01,104.01,104.01,100
248,104.04,104.04,104.03,104.03,700
249,104.02,104.04,104.01,104.04,2545
250,104.02,104.02,104.01,104.01,1213
251,104.02,104.02,104.02,104.02,100
252,104.01,104.01,104.01,104.01,100
253,103.95,104.015,103.94,104.01,2685
254,103.93,103.945,103.93,103.945,637
257,103.94,103.95,103.93,103.94,1700
259,103.82,103.94,103.82,103.94,3291
262,103.8,103.825,103.8,103.82,1100
263,103.79,103.8,103.76,103.78,2100
264,103.79,103.79,103.79,103.79,100
265,103.78,103.78,103.78,103.78,100
266,103.79,103.79,103.78,103.79,300
267,103.79,103.79,103.79,103.79,700
268,103.82,103.82,103.78,103.78,1911
269,103.81,103.81,103.81,103.81,100
270,103.8,103.81,103.8,103.81,300
271,103.78,103.81,103.78,103.79,1001
272,103.765,103.77,103.76,103.77,2321
273,103.78,103.8,103.77,103.79,2351
274,103.79,103.79,103.79,103.79,100
275,103.77,103.77,103.77,103.77,680
276,103.79,103.79,103.79,103.79,801
277,103.82,103.82,103.8,103.8,700
278,103.76,103.8302,103.76,103.8302,2500
280,103.77,103.77,103.77,103.77,501
281,103.76,103.76,103.76,103.76,100
282,103.76,103.775,103.76,103.775,676
283,103.78,103.78,103.75,103.75,1292
284,103.7838,103.79,103.7701,103.79,1451
285,103.78,103.7836,103.78,103.7836,421
286,103.77,103.77,103.755,103.77,2700
288,103.77,103.77,103.77,103.77,100
289,103.77,103.775,103.77,103.775,200
290,103.76,103.76,103.76,103.76,600
291,103.7795,103.7795,103.755,103.755,2123
292,103.8,103.8,103.775,103.78,2247
293,103.78,103.79,103.78,103.79,2765
296,103.78,103.8,103.78,103.8,400
297,103.78,103.78,103.78,103.78,100
298,103.7503,103.78,103.74,103.78,2756
299,103.73,103.76,103.73,103.75,1509
300,103.72,103.72,103.72,103.72,100
301,103.74,103.75,103.71,103.71,2708
302,103.75,103.75,103.74,103.74,700
303,103.76,103.76,103.76,103.76,100
304,103.7547,103.755,103.7547,103.755,370
306,103.77,103.77,103.7534,103.755,1644
307,103.78,103.78,103.75,103.77,5495
308,103.805,103.805,103.79,103.79,950
309,103.81,103.81,103.81,103.81,200
310,103.81,103.81,103.81,103.81,1530
311,103.82,103.83,103.81,103.81,2800
312,103.83,103.83,103.83,103.83,100
313,103.81,103.82,103.81,103.82,800
314,103.825,103.8276,103.82,103.82,2082
315,103.84,103.86,103.83,103.83,1927
316,103.84,103.86,103.84,103.85,800
318,103.87,103.87,103.84,103.84,3306
319,103.86,103.87,103.86,103.87,1100
320,103.876,103.88,103.873,103.875,1600
322,103.9,103.91,103.89,103.89,1551
323,103.9,103.9,103.9,103.9,100
324,103.87,103.91,103.87,103.9,1752
325,103.86,103.86,103.84,103.85,2650
326,103.87,103.88,103.85,103.85,1503
327,103.875,103.875,103.875,103.875,100
328,103.87,103.89,103.87,103.88,2649
329,103.8699,103.8699,103.865,103.8699,300
331,103.8656,103.8656,103.86,103.86,434
332,103.863,103.863,103.86,103.86,900
333,103.78,103.86,103.78,103.86,6308
334,103.77,103.78,103.77,103.78,500
335,103.8,103.8,103.78,103.78,1926
339,103.83,103.8429,103.815,103.82,4632
340,103.81,103.82,103.8076,103.82,2268
341,103.83,103.84,103.83,103.84,1300
342,103.83,103.83,103.82,103.82,300
343,103.84,103.84,103.83,103.83,839
344,103.86,103.86,103.84,103.84,1620
345,103.86,103.87,103.8594,103.86,946
346,103.85,103.86,103.85,103.86,1362
347,103.87,103.87,103.85,103.85,1600
348,103.86,103.87,103.86,103.87,949
349,103.87,103.87,103.86,103.86,900
350,103.86,103.8747,103.86,103.87,1440
351,103.86,103.86,103.85,103.85,200
352,103.86,103.86,103.86,103.86,300
353,103.86,103.87,103.86,103.865,500
354,103.87,103.87,103.86,103.865,2374
355,103.87,103.87,103.87,103.87,100
356,103.875,103.875,103.87,103.87,500
357,103.88,103.89,103.88,103.88,1600
358,103.9,103.9,103.88,103.885,4763
359,103.87,103.9,103.87,103.9,2562
360,103.84,103.88,103.84,103.87,1200
361,103.825,103.84,103.82,103.84,1203
362,103.81,103.82,103.81,103.82,1300
363,103.81,103.81,103.81,103.81,400
364,103.83,103.84,103.81,103.81,3042
365,103.825,103.825,103.82,103.82,300
366,103.81,103.825,103.81,103.82,2142
367,103.83,103.83,103.81,103.81,2494
368,103.82,103.83,103.82,103.82,700
369,103.78,103.815,103.78,103.815,2581
370,103.76,103.78,103.76,103.77,1400
371,103.79,103.79,103.75,103.76,3300
372,103.8,103.8,103.795,103.8,500
373,103.8,103.8,103.795,103.795,200
374,103.795,103.8,103.79,103.79,1100
375,103.78,103.8,103.78,103.79,5098
376,103.8,103.8,103.77,103.77,3000
377,103.82,103.82,103.79,103.8,2237
378,103.83,103.84,103.82,103.82,2874
379,103.8,103.82,103.79,103.82,2501
380,103.79,103.81,103.79,103.79,5032
381,103.78,103.79,103.78,103.79,1650
382,103.79,103.79,103.77,103.775,3672
383,103.785,103.79,103.785,103.79,1200
384,103.78,103.79,103.78,103.78,1899
385,103.74,103.785,103.73,103.785,9039
386,103.73,103.735,103.72,103.73,4292
387,103.695,103.735,103.695,103.73,4916
388,103.69,103.7,103.69,103.7,7460
389,103.85,103.85,103.68,103.69,32045
390,103.85,103.9799,103.84,103.86,64878
