EOG,EOG Resources,Energy,3,Oil & Gas Exploration & Production,51623892184,3482778
a1499693400,88.13,88.13,88.13,88.13,14269
1,88.21,88.28,88.15,88.25,1500
2,88.28,88.28,88.19,88.23,4554
3,88.1453,88.28,88.1453,88.28,950
4,88.19,88.21,88.1,88.19,7632
5,88.03,88.21,88,88.21,5363
6,88.24,88.27,88,88,8867
7,88.15,88.25,88.13,88.25,3951
8,88.14,88.1799,88.1,88.13,7060
9,88.09,88.145,88.09,88.12,4800
10,88.08,88.17,88.06,88.08,6279
11,88.25,88.27,88.07,88.07,3564
12,88.33,88.42,88.255,88.26,18057
13,88.43,88.45,88.34,88.35,4300
14,88.32,88.465,88.31,88.45,2353
15,88.43,88.48,88.33,88.33,3978
16,88.54,88.54,88.44,88.44,5100
17,88.64,88.69,88.56,88.56,7180
18,88.57,88.61,88.48,88.56,4450
19,88.675,88.72,88.59,88.59,2434
20,88.685,88.74,88.68,88.68,1000
21,88.87,88.87,88.78,88.78,2590
22,88.94,88.96,88.88,88.92,3173
23,88.86,89.01,88.86,88.9,5800
24,88.86,88.88,88.77,88.84,4933
25,88.72,88.866,88.66,88.866,5567
26,88.74,88.8,88.69,88.76,3451
27,88.765,88.765,88.73,88.76,400
28,88.71,88.78,88.66,88.78,5100
29,88.725,88.84,88.725,88.74,3269
30,88.76,88.8,88.73,88.74,2792
31,88.81,88.82,88.74,88.75,9351
32,88.92,88.92,88.71,88.83,9052
33,89.0099,89.0099,88.9,88.9,2929
34,89.07,89.09,88.99,89.01,3861
35,89.07,89.08,89.01,89.07,9469
36,88.94,89.07,88.93,89.02,11530
37,88.89,88.96,88.89,88.94,3750
38,88.9601,89.02,88.9,88.9,2971
39,88.9008,89,88.87,89,2200
40,88.88,88.93,88.87,88.92,900
41,88.91,88.92,88.87,88.89,2201
42,88.9,88.9,88.86,88.9,2097
43,88.9,88.9,88.88,88.89,1000
44,88.86,88.88,88.8201,88.87,2112
45,88.73,88.85,88.73,88.85,1501
46,88.77,88.77,88.7,88.77,3126
47,88.77,88.77,88.73,88.73,2392
48,88.76,88.77,88.69,88.77,4804
49,88.79,88.79,88.71,88.72,1900
50,88.8,88.83,88.72,88.73,2400
51,88.8,88.81,88.75,88.75,2097
52,88.92,88.92,88.84,88.84,1750
53,88.84,88.91,88.83,88.88,1729
54,88.82,88.86,88.8,88.84,4710
55,88.79,88.83,88.79,88.83,800
56,88.765,88.8372,88.765,88.8372,1942
57,88.75,88.76,88.74,88.76,700
58,88.54,88.73,88.54,88.73,2000
59,88.6,88.63,88.54,88.59,2500
60,88.57,88.63,88.56,88.602,1229
61,88.64,88.69,88.58,88.63,1500
62,88.65,88.68,88.64,88.68,1708
63,88.62,88.69,88.62,88.66,2504
64,88.54,88.59,88.54,88.59,4400
65,88.47,88.53,88.47,88.53,2800
66,88.36,88.44,88.36,88.44,1320
67,88.3818,88.39,88.36,88.38,4700
68,88.39,88.39,88.33,88.36,3845
69,88.35,88.39,88.31,88.39,4851
70,88.3,88.37,88.3,88.34,5500
71,88.4,88.47,88.3,88.34,3999
72,88.38,88.4,88.375,88.38,1970
73,88.33,88.41,88.33,88.38,1825
74,88.48,88.48,88.3,88.3,4358
75,88.55,88.55,88.47,88.47,2050
76,88.69,88.69,88.57,88.58,3600
77,88.7175,88.74,88.67,88.69,2750
78,88.65,88.71,88.57,88.71,2910
79,88.56,88.62,88.54,88.61,1200
80,88.59,88.59,88.59,88.59,200
81,88.56,88.6,88.56,88.6,1000
82,88.65,88.65,88.56,88.58,2342
83,88.78,88.8,88.67,88.67,9045
84,88.91,88.91,88.79,88.8,2822
85,88.87,88.95,88.85,88.95,4533
86,88.88,88.95,88.865,88.865,3430
87,88.95,89,88.92,88.92,9301
88,88.91,88.96,88.9,88.95,4000
89,88.92,88.96,88.92,88.94,1344
90,88.88,88.95,88.88,88.95,1902
91,88.88,88.91,88.87,88.88,2565
92,88.96,89,88.89,88.89,4020
93,88.97,89.03,88.95,88.96,2100
94,89.08,89.1,88.98,88.98,2700
95,88.99,89.07,88.97,89.06,3722
96,89.0401,89.11,88.97,88.97,5301
97,89.24,89.24,89.07,89.08,4182
98,89.15,89.18,89.13,89.1601,4500
99,89.16,89.2,89.12,89.15,2000
100,89.11,89.15,89.11,89.15,3064
101,89.0301,89.12,88.99,89.08,6221
102,89.1,89.1,89.03,89.03,2118
103,89.09,89.11,89.06,89.06,1578
104,89.05,89.0999,89.05,89.0999,515
105,89.22,89.22,89.07,89.09,4100
106,89.22,89.25,89.17,89.24,2677
107,89.23,89.275,89.18,89.205,4035
108,89.2,89.22,89.165,89.21,1400
109,89.295,89.31,89.21,89.21,2700
110,89.34,89.35,89.3,89.3,4900
111,89.43,89.48,89.355,89.36,3000
112,89.39,89.44,89.37,89.43,1950
113,89.352,89.42,89.35,89.41,1887
114,89.36,89.38,89.3,89.38,1300
115,89.43,89.48,89.35,89.36,5598
116,89.48,89.52,89.39,89.42,7016
117,89.465,89.49,89.43,89.48,3138
118,89.44,89.47,89.4301,89.47,4828
119,89.42,89.49,89.42,89.48,4295
120,89.31,89.41,89.28,89.41,3052
121,89.32,89.37,89.32,89.36,1400
122,89.3,89.39,89.3,89.37,1523
123,89.23,89.32,89.2,89.3,1826
124,89.18,89.235,89.12,89.2,3882
125,89.1,89.185,89.1,89.175,1500
126,89.06,89.155,89.05,89.13,6906
127,89.09,89.115,89.05,89.08,17350
128,89.0575,89.08,89.055,89.08,2867
129,89.04,89.05,88.97,89.04,6053
130,89,89.03,89,89.015,1199
131,88.98,89,88.95,89,1600
132,88.9971,89.02,88.99,88.99,1140
133,88.89,88.98,88.86,88.98,4285
134,88.88,88.91,88.85,88.91,1100
135,88.78,88.9099,88.78,88.9099,2250
136,88.74,88.82,88.74,88.82,3950
137,88.87,88.87,88.77,88.8,2400
138,88.95,88.95,88.89,88.89,1300
139,88.92,88.99,88.92,88.99,2200
140,88.895,88.91,88.86,88.91,2342
141,88.96,88.96,88.9,88.91,1300
142,88.89,88.95,88.89,88.94,3415
143,88.91,88.93,88.8501,88.8501,1700
144,88.88,88.96,88.88,88.94,1600
145,88.94,88.94,88.82,88.85,2900
146,88.97,89.09,88.93,88.95,6105
147,88.95,89.04,88.94,88.95,6756
148,89.06,89.09,88.98,88.98,2300
149,89.01,89.08,88.9,89.08,12206
150,88.96,88.99,88.96,88.99,801
151,89.065,89.1,88.93,88.94,5271
152,89.065,89.1,89.06,89.09,4200
153,89.08,89.08,89.02,89.05,1600
154,89.14,89.2,89.0773,89.0773,14745
155,89.16,89.16,89.09,89.1,3632
156,89.13,89.16,89.09,89.16,2101
157,89.15,89.21,89.14,89.15,3800
158,89.13,89.175,89.12,89.125,1900
159,89.23,89.23,89.09,89.1,3103
160,89.26,89.28,89.21,89.21,3510
161,89.2,89.25,89.2,89.25,600
162,89.23,89.23,89.23,89.23,100
163,89.27,89.27,89.195,89.2199,2400
164,89.2,89.28,89.2,89.28,1000
165,89.18,89.2,89.16,89.2,1100
166,89.205,89.21,89.18,89.18,912
167,89.23,89.24,89.2,89.21,1666
168,89.2,89.24,89.19,89.21,2100
169,89.27,89.27,89.21,89.21,1700
170,89.28,89.3,89.24,89.29,1000
171,89.32,89.33,89.27,89.27,1600
172,89.3,89.33,89.3,89.33,500
173,89.3,89.33,89.29,89.33,1100
174,89.33,89.34,89.3,89.3,1201
176,89.4,89.4,89.34,89.35,2200
177,89.39,89.41,89.38,89.38,1200
178,89.38,89.38,89.34,89.36,1400
179,89.34,89.34,89.34,89.34,200
180,89.34,89.38,89.34,89.37,1250
182,89.35,89.36,89.33,89.33,857
183,89.39,89.39,89.36,89.36,1000
184,89.33,89.37,89.33,89.37,700
185,89.28,89.34,89.27,89.3,2300
186,89.24,89.28,89.24,89.28,200
187,89.28,89.28,89.26,89.27,1100
188,89.27,89.32,89.27,89.29,900
189,89.28,89.31,89.23,89.3,1800
190,89.24,89.29,89.24,89.26,1100
191,89.3,89.3,89.28,89.28,1150
192,89.26,89.32,89.25,89.28,2300
193,89.2,89.26,89.2,89.26,4195
194,89.31,89.31,89.2,89.22,3597
195,89.34,89.34,89.31,89.31,2104
196,89.36,89.36,89.31,89.36,2300
197,89.38,89.41,89.36,89.36,3556
198,89.4,89.4,89.39,89.39,200
199,89.4,89.4,89.38,89.38,300
200,89.5,89.52,89.42,89.42,2275
201,89.49,89.5,89.48,89.5,700
202,89.485,89.51,89.44,89.51,4805
203,89.49,89.51,89.48,89.5,1150
204,89.435,89.48,89.43,89.48,900
206,89.42,89.48,89.41,89.48,1533
207,89.4459,89.45,89.42,89.43,950
208,89.45,89.45,89.38,89.41,1550
209,89.48,89.48,89.43,89.45,1500
210,89.57,89.57,89.4822,89.49,2093
211,89.51,89.5511,89.5,89.5511,1129
212,89.5,89.54,89.48,89.53,1700
213,89.49,89.52,89.48,89.48,700
214,89.59,89.59,89.47,89.48,3379
215,89.61,89.62,89.58,89.58,2077
216,89.57,89.6,89.56,89.6,1700
217,89.48,89.56,89.48,89.56,1000
218,89.47,89.52,89.47,89.49,2300
219,89.5,89.52,89.49,89.49,1620
220,89.58,89.59,89.51,89.51,3000
221,89.58,89.59,89.57,89.57,500
222,89.48,89.55,89.48,89.52,2250
223,89.43,89.49,89.43,89.47,500
224,89.47,89.47,89.45,89.45,972
225,89.45,89.465,89.42,89.465,3381
226,89.54,89.54,89.45,89.45,2199
227,89.52,89.56,89.51,89.54,1539
228,89.53,89.53,89.4932,89.51,2921
229,89.58,89.59,89.51,89.51,2500
230,89.55,89.6,89.54,89.57,2200
231,89.54,89.5799,89.54,89.56,1275
232,89.62,89.62,89.54,89.54,1600
233,89.61,89.63,89.58,89.6,2011
234,89.62,89.63,89.581,89.63,1900
235,89.58,89.62,89.58,89.62,1200
236,89.47,89.56,89.47,89.56,1100
237,89.5,89.51,89.47,89.495,1764
238,89.45,89.52,89.45,89.49,700
239,89.51,89.51,89.44,89.44,1920
240,89.444,89.52,89.44,89.52,2292
241,89.45,89.47,89.4,89.46,1951
242,89.48,89.52,89.46,89.46,1400
243,89.47,89.49,89.41,89.45,2000
244,89.46,89.46,89.42,89.42,1020
245,89.44,89.45,89.44,89.45,400
246,89.454,89.49,89.42,89.45,8650
247,89.4172,89.45,89.4172,89.45,400
248,89.43,89.44,89.4,89.44,1300
249,89.43,89.43,89.39,89.42,2900
250,89.39,89.44,89.39,89.44,1300
251,89.42,89.42,89.39,89.39,1250
252,89.51,89.51,89.43,89.43,1625
253,89.5,89.5,89.47,89.49,3012
254,89.4392,89.49,89.42,89.49,2462
255,89.41,89.43,89.41,89.43,700
256,89.37,89.4,89.37,89.3901,1700
257,89.39,89.41,89.365,89.365,3100
258,89.36,89.36,89.35,89.35,200
259,89.33,89.33,89.33,89.33,100
260,89.34,89.36,89.31,89.33,3336
261,89.34,89.37,89.34,89.35,600
262,89.46,89.46,89.33,89.33,1200
263,89.42,89.47,89.42,89.47,600
264,89.405,89.42,89.39,89.41,1100
265,89.39,89.39,89.35,89.39,1100
266,89.43,89.43,89.39,89.39,500
267,89.47,89.51,89.44,89.44,1891
268,89.49,89.49,89.45,89.45,600
269,89.5599,89.5599,89.51,89.51,949
270,89.515,89.58,89.51,89.56,2405
271,89.58,89.58,89.49,89.5,7207
272,89.54,89.575,89.51,89.5577,2553
273,89.54,89.56,89.52,89.56,1490
274,89.515,89.57,89.515,89.5403,1999
275,89.6,89.6,89.51,89.51,8115
276,89.6701,89.68,89.61,89.62,3153
277,89.74,89.74,89.66,89.67,2800
278,89.73,89.78,89.72,89.76,2800
279,89.665,89.74,89.66,89.74,1684
280,89.66,89.69,89.65,89.68,2200
281,89.76,89.76,89.68,89.68,1100
282,89.77,89.77,89.77,89.77,200
283,89.77,89.77,89.731,89.755,500
284,89.75,89.77,89.73,89.755,5300
285,89.7199,89.73,89.69,89.73,7181
286,89.68,89.72,89.68,89.69,2400
287,89.65,89.74,89.65,89.6893,2461
288,89.64,89.68,89.64,89.67,800
289,89.61,89.64,89.59,89.62,1000
290,89.59,89.6,89.54,89.57,2850
291,89.59,89.62,89.58,89.58,4555
292,89.65,89.66,89.59,89.59,1600
293,89.71,89.74,89.62,89.62,1700
294,89.61,89.7,89.61,89.7,1700
295,89.67,89.67,89.63,89.64,1538
296,89.66,89.6708,89.62,89.6708,6400
297,89.64,89.68,89.64,89.67,1300
298,89.62,89.67,89.61,89.67,2399
299,89.55,89.61,89.55,89.61,2050
300,89.51,89.5406,89.51,89.54,1100
301,89.5,89.53,89.49,89.5,4037
302,89.45,89.49,89.45,89.49,1200
303,89.46,89.46,89.41,89.43,2952
304,89.44,89.47,89.44,89.46,2114
305,89.425,89.46,89.41,89.46,1508
306,89.49,89.49,89.41,89.41,3515
307,89.53,89.54,89.49,89.49,1426
308,89.53,89.54,89.51,89.53,2900
310,89.52,89.55,89.52,89.5454,6742
311,89.5,89.52,89.5,89.51,700
312,89.54,89.54,89.5,89.5,700
313,89.66,89.66,89.57,89.57,2564
314,89.64,89.68,89.62,89.68,4700
315,89.59,89.65,89.59,89.65,1100
316,89.61,89.61,89.57,89.59,3000
317,89.59,89.61,89.57,89.59,700
318,89.565,89.585,89.56,89.585,3264
319,89.57,89.58,89.565,89.565,2640
320,89.58,89.58,89.56,89.58,800
321,89.64,89.64,89.58,89.58,4906
322,89.655,89.66,89.642,89.65,739
323,89.65,89.68,89.65,89.66,996
324,89.64,89.65,89.64,89.64,1000
325,89.63,89.64,89.62,89.63,1400
326,89.62,89.64,89.62,89.64,2100
327,89.57,89.605,89.57,89.59,1600
328,89.59,89.59,89.57,89.57,400
329,89.55,89.59,89.55,89.59,500
330,89.56,89.56,89.56,89.56,200
331,89.5,89.56,89.5,89.56,3121
332,89.43,89.5,89.43,89.5,5611
333,89.42,89.46,89.42,89.44,3365
334,89.48,89.48,89.42,89.42,2200
335,89.56,89.56,89.46,89.489,2637
336,89.51,89.59,89.51,89.59,2613
337,89.56,89.56,89.53,89.53,900
338,89.53,89.55,89.53,89.55,1714
339,89.548,89.575,89.54,89.56,3446
340,89.5375,89.56,89.53,89.55,2357
341,89.54,89.5404,89.52,89.5404,1696
342,89.49,89.55,89.49,89.54,2584
343,89.47,89.5,89.47,89.48,2750
344,89.4944,89.5,89.46,89.47,1482
345,89.5,89.52,89.5,89.52,2300
346,89.6,89.6,89.51,89.51,3258
347,89.52,89.61,89.52,89.61,5117
348,89.58,89.58,89.51,89.54,2405
349,89.58,89.61,89.56,89.57,3299
350,89.68,89.68,89.58,89.58,3335
351,89.68,89.68,89.68,89.68,100
352,89.67,89.69,89.67,89.67,2400
354,89.64,89.69,89.64,89.675,4050
355,89.6,89.64,89.6,89.64,1421
356,89.65,89.65,89.61,89.61,3936
357,89.68,89.68,89.63,89.64,2500
358,89.72,89.72,89.69,89.69,1350
359,89.74,89.75,89.72,89.72,8600
360,89.75,89.76,89.73,89.73,3000
361,89.68,89.73,89.68,89.73,4857
362,89.63,89.69,89.63,89.66,3276
363,89.65,89.65,89.62,89.62,1829
364,89.62,89.64,89.58,89.64,8174
365,89.65,89.66,89.62,89.62,3000
366,89.61,89.65,89.6075,89.65,5530
367,89.6,89.63,89.59,89.6,5200
368,89.52,89.62,89.52,89.61,8266
369,89.55,89.554,89.52,89.53,5154
370,89.53,89.54,89.52,89.54,4900
371,89.58,89.59,89.52,89.53,8835
372,89.64,89.64,89.56,89.58,4202
373,89.66,89.66,89.62,89.63,6251
374,89.68,89.69,89.67,89.67,5808
375,89.69,89.7,89.67,89.68,10001
376,89.75,89.75,89.695,89.7,7257
377,89.735,89.77,89.73,89.74,8642
378,89.7,89.74,89.7,89.74,6717
379,89.7,89.7,89.68,89.69,5174
380,89.72,89.72,89.68,89.68,9476
381,89.71,89.73,89.71,89.72,8861
382,89.699,89.71,89.68,89.7,10129
383,89.71,89.71,89.6898,89.69,9717
384,89.66,89.71,89.66,89.71,10425
385,89.61,89.65,89.59,89.65,13917
386,89.61,89.63,89.6,89.6,14308
387,89.61,89.63,89.61,89.62,9468
388,89.615,89.62,89.59,89.61,15637
389,89.62,89.63,89.61,89.61,22429
390,89.59,89.65,89.55,89.61,34772
