EOG,EOG Resources,Energy,3,Oil & Gas Exploration & Production,52556252036,3425467
a1498829400,90.34,90.34,90.34,90.34,34507
1,90.73,90.73,90.46,90.56,1810
2,90.81,90.83,90.78,90.81,1300
3,90.73,90.79,90.68,90.79,5800
4,90.74,90.74,90.61,90.655,3900
5,90.7,90.74,90.6,90.7,5850
6,90.555,90.74,90.53,90.7,17286
7,90.48,90.51,90.34,90.48,16684
8,90.43,90.51,90.33,90.47,12110
9,90.27,90.5,90.27,90.43,16355
10,90.2381,90.29,90.21,90.23,3961
11,90.3,90.32,90.15,90.24,13888
12,90.14,90.31,90.11,90.31,7034
13,90.2,90.29,90.08,90.14,11204
14,90.28,90.29,90.18,90.1981,4300
15,90.41,90.41,90.25,90.25,8650
16,90.49,90.5,90.3501,90.3501,7069
17,90.61,90.62,90.46,90.48,11300
18,90.55,90.61,90.495,90.61,7703
19,90.5,90.53,90.45,90.49,4630
20,90.4575,90.57,90.43,90.5,7905
21,90.4,90.465,90.32,90.45,9328
22,90.54,90.54,90.415,90.42,2601
23,90.5297,90.62,90.5,90.51,10821
24,90.42,90.51,90.4,90.51,2200
25,90.53,90.53,90.4,90.4,7416
26,90.54,90.54,90.47,90.53,6809
27,90.41,90.52,90.39,90.5,5702
28,90.42,90.48,90.39,90.39,4327
29,90.4,90.44,90.36,90.41,8863
30,90.39,90.43,90.34,90.39,10944
31,90.29,90.4,90.29,90.3775,2754
32,90.2,90.32,90.12,90.32,9600
33,90.2,90.24,90.17,90.17,3664
34,90.105,90.19,90.105,90.17,3389
35,90.33,90.41,90.1,90.13,29796
36,90.28,90.28,90.24,90.28,1700
37,90.185,90.31,90.17,90.31,4922
38,90.18,90.23,90.16,90.185,5250
39,90.16,90.2,90.12,90.195,8331
40,90.07,90.18,90.05,90.15,6001
41,90.04,90.1,90,90.07,14569
42,90.03,90.11,90.02,90.04,10642
43,89.98,90.05,89.98,90.02,11754
44,89.98,90.05,89.98,90.05,4100
45,90.07,90.1,89.92,89.98,13406
46,90.02,90.1,90.02,90.05,5086
47,90.02,90.06,89.96,90.035,2000
48,89.94,89.98,89.87,89.98,5207
49,89.945,89.95,89.89,89.93,5474
50,89.935,89.995,89.9275,89.9275,5942
51,90,90,89.95,89.95,2704
52,90.0185,90.03,89.985,90.02,5534
53,90.025,90.045,90.02,90.0399,4999
54,89.93,90.04,89.9,90.03,3650
55,89.98,89.98,89.94,89.94,4108
56,89.9,89.97,89.88,89.95,2500
57,89.86,89.9,89.84,89.9,3914
58,89.899,89.9,89.85,89.85,3962
59,89.87,89.89,89.86,89.89,4208
60,89.8,89.8501,89.79,89.8501,4709
61,89.81,89.87,89.8,89.8,11097
62,89.7175,89.81,89.69,89.785,2998
63,89.72,89.74,89.69,89.71,4395
64,89.67,89.73,89.63,89.71,8563
65,89.665,89.67,89.61,89.67,5550
66,89.58,89.68,89.58,89.665,2711
67,89.52,89.58,89.52,89.55,6002
68,89.545,89.58,89.53,89.56,6136
69,89.45,89.51,89.45,89.51,2718
70,89.35,89.46,89.34,89.46,14225
71,89.26,89.39,89.25,89.37,22494
72,89.34,89.35,89.27,89.27,4914
73,89.57,89.57,89.355,89.36,11757
74,89.5,89.59,89.49,89.555,4750
75,89.53,89.53,89.46,89.5,5779
76,89.56,89.56,89.51,89.53,2950
77,89.555,89.58,89.54,89.56,10836
78,89.51,89.56,89.49,89.55,9635
79,89.63,89.64,89.53,89.53,5600
80,89.69,89.77,89.61,89.64,8967
81,89.73,89.74,89.7,89.71,3603
82,89.6,89.72,89.6,89.7,5702
83,89.63,89.63,89.57,89.57,4039
84,89.56,89.61,89.51,89.61,4900
85,89.61,89.63,89.55,89.55,3900
86,89.58,89.65,89.58,89.62,4478
87,89.49,89.6,89.49,89.59,3565
88,89.5,89.5,89.47,89.47,3650
89,89.45,89.5,89.44,89.5,6202
90,89.49,89.49,89.41,89.47,13736
91,89.58,89.6,89.5,89.5,5497
92,89.67,89.67,89.6,89.6,5371
93,89.73,89.73,89.66,89.66,5530
94,89.75,89.75,89.69,89.75,10379
95,89.82,89.83,89.79,89.79,6146
96,89.81,89.81,89.75,89.8,3380
97,89.76,89.82,89.76,89.82,2200
98,89.79,89.81,89.77,89.77,5469
99,89.77,89.8,89.75,89.8,4598
100,89.8,89.81,89.77,89.78,5850
101,89.74,89.8,89.73,89.8,5578
102,89.74,89.79,89.73,89.73,1635
103,89.76,89.79,89.76,89.76,3300
104,89.72,89.79,89.72,89.78,4546
105,89.695,89.75,89.69,89.75,4795
106,89.61,89.69,89.6,89.69,2063
107,89.57,89.62,89.55,89.61,3886
108,89.65,89.65,89.5701,89.5701,1722
109,89.65,89.67,89.63,89.65,5604
110,89.66,89.67,89.63,89.63,2156
111,89.7,89.72,89.67,89.67,3302
112,89.7,89.7,89.64,89.64,2250
113,89.78,89.8099,89.72,89.72,4150
114,89.8,89.8,89.78,89.79,3457
115,89.76,89.8,89.76,89.79,1401
116,89.83,89.83,89.76,89.76,5456
117,89.82,89.83,89.78,89.82,9004
118,89.8,89.84,89.8,89.8,2500
119,89.81,89.815,89.77,89.8,3350
120,89.81,89.83,89.79,89.8,10928
121,89.9604,89.9604,89.82,89.83,14589
122,90.01,90.01,89.93,89.96,4879
123,90.065,90.065,89.99,90.02,2600
124,90.04,90.08,90.04,90.05,1924
125,90.01,90.02,89.99,90.02,6600
126,90.08,90.135,90.02,90.02,7219
127,90.09,90.11,90.09,90.1,1314
128,90.02,90.1,90.02,90.1,3814
129,90.09,90.09,89.97,90.01,3500
130,90.06,90.09,90.03,90.09,9172
131,90.06,90.065,90.02,90.06,4715
132,90.04,90.06,90.04,90.06,900
133,90,90.02,89.99,90.02,600
134,90,90.005,89.98,90.005,6355
135,89.92,90,89.92,90,2700
136,89.89,89.923,89.89,89.92,800
137,89.86,89.91,89.86,89.89,5203
138,89.88,89.91,89.86,89.86,4051
139,89.87,89.87,89.86,89.87,900
140,89.905,89.91,89.85,89.865,3484
141,89.9185,89.92,89.8808,89.8808,1171
142,89.91,89.91,89.9,89.9,1725
143,89.88,89.9,89.87,89.89,4899
144,89.82,89.88,89.82,89.87,2700
145,89.82,89.85,89.7942,89.84,5950
146,89.91,89.91,89.85,89.85,1373
147,89.88,89.91,89.88,89.89,3896
148,89.92,89.92,89.91,89.91,550
149,89.86,89.89,89.845,89.89,2000
150,89.85,89.86,89.84,89.84,1100
151,89.85,89.85,89.83,89.85,930
152,89.79,89.84,89.79,89.83,4536
153,89.85,89.85,89.8,89.8,2350
154,89.92,89.93,89.86,89.86,1111
155,89.91,89.93,89.91,89.93,1500
156,89.89,89.91,89.89,89.91,2303
157,89.9,89.91,89.89,89.9,3592
158,89.9,89.91,89.88,89.89,5198
159,89.92,89.92,89.895,89.895,5388
160,89.8938,89.93,89.8938,89.93,2151
161,89.93,89.93,89.9,89.91,1936
162,89.925,89.95,89.92,89.94,3665
163,89.99,89.99,89.93,89.94,3084
164,89.935,89.96,89.93,89.96,1752
165,89.935,89.94,89.935,89.94,2000
166,89.9,89.93,89.87,89.93,2600
167,89.83,89.9,89.81,89.9,2100
168,89.74,89.78,89.74,89.78,3514
169,89.78,89.78,89.73,89.73,3350
170,89.78,89.78,89.77,89.78,1748
171,89.78,89.78,89.76,89.78,3792
172,89.83,89.84,89.78,89.78,2501
173,89.84,89.85,89.79,89.8,3250
174,89.82,89.85,89.81,89.83,2651
175,89.825,89.85,89.82,89.85,1425
176,89.84,89.85,89.83,89.84,1855
177,89.82,89.83,89.82,89.83,2717
178,89.83,89.83,89.82,89.83,2642
179,89.84,89.8447,89.83,89.83,21774
180,89.88,89.885,89.86,89.86,1600
181,89.89,89.89,89.88,89.88,200
182,89.92,89.93,89.91,89.91,1100
183,89.929,89.94,89.91,89.93,1600
184,89.92,89.93,89.89,89.93,2850
185,89.875,89.93,89.87,89.91,2144
186,89.9,89.9,89.88,89.88,1200
187,89.9,89.91,89.89,89.91,2192
188,89.885,89.91,89.88,89.91,700
189,89.84,89.87,89.84,89.87,900
190,89.7705,89.83,89.76,89.83,1700
191,89.8,89.8,89.79,89.79,2100
192,89.81,89.82,89.78,89.79,1797
193,89.81,89.825,89.81,89.825,200
194,89.85,89.85,89.82,89.82,1500
195,89.77,89.87,89.77,89.87,3601
196,89.8,89.81,89.76,89.78,12201
197,89.82,89.87,89.81,89.81,12127
198,89.84,89.84,89.84,89.84,500
199,89.82,89.8599,89.81,89.84,5191
200,89.815,89.82,89.805,89.81,3329
201,89.87,89.87,89.82,89.83,1900
202,89.8422,89.87,89.84,89.87,1250
203,89.9,89.9,89.84,89.86,1950
204,89.9,89.92,89.9,89.91,4807
205,89.9,89.9,89.89,89.89,1283
206,89.9,89.91,89.89,89.9,2613
207,89.89,89.89,89.86,89.89,1552
208,89.88,89.89,89.87,89.87,648
209,89.9,89.9,89.89,89.89,1700
210,89.89,89.9,89.88,89.9,4190
211,89.91,89.91,89.89,89.89,10422
212,89.995,90.01,89.91,89.91,6957
213,90.09,90.09,90.02,90.02,2350
214,90.11,90.11,90.07,90.07,4023
215,90.15,90.19,90.11,90.12,9065
216,90.1,90.14,90.09,90.14,7500
217,90.04,90.1,90.03,90.1,7450
218,90.09,90.11,90.045,90.045,5333
219,90.06,90.1,90.06,90.1,9956
220,90.05,90.08,90.05,90.06,6006
221,90.1,90.11,90.04,90.05,6215
222,90.23,90.23,90.09,90.1,12185
223,90.3518,90.43,90.23,90.23,9492
224,90.31,90.34,90.3,90.34,8801
225,90.34,90.34,90.3,90.32,5110
226,90.39,90.39,90.29,90.31,7720
227,90.5,90.5,90.4,90.4,4259
228,90.56,90.56,90.45,90.5,5824
229,90.6,90.62,90.56,90.58,5114
230,90.55,90.61,90.55,90.61,7688
231,90.48,90.54,90.48,90.54,6516
232,90.36,90.48,90.36,90.48,12433
233,90.37,90.39,90.32,90.35,4800
234,90.47,90.47,90.39,90.39,2316
235,90.52,90.54,90.45,90.47,5750
236,90.59,90.59,90.48,90.51,4600
237,90.55,90.6,90.54,90.58,5649
238,90.62,90.63,90.53,90.54,5283
239,90.58,90.62,90.57,90.61,4975
240,90.63,90.65,90.5701,90.5701,8426
241,90.595,90.64,90.59,90.62,8468
242,90.56,90.6,90.56,90.595,7458
243,90.61,90.61,90.58,90.59,7322
244,90.62,90.62,90.6,90.6,6104
245,90.73,90.74,90.62,90.62,9319
246,90.8,90.81,90.71,90.72,3435
247,90.69,90.78,90.69,90.78,5051
248,90.64,90.68,90.64,90.67,6638
249,90.63,90.6591,90.62,90.65,7800
250,90.66,90.66,90.62,90.65,1900
251,90.64,90.66,90.62,90.66,3535
252,90.67,90.67,90.6,90.63,2927
253,90.67,90.73,90.66,90.69,2501
254,90.66,90.72,90.66,90.6665,2901
255,90.63,90.67,90.63,90.66,3115
256,90.61,90.68,90.61,90.63,7096
257,90.57,90.61,90.57,90.6,7098
258,90.62,90.62,90.56,90.56,5315
259,90.72,90.72,90.62,90.62,4382
260,90.7,90.74,90.69,90.7,5102
261,90.72,90.72,90.66,90.69,5588
262,90.67,90.75,90.66,90.72,4151
263,90.73,90.73,90.66,90.66,2121
264,90.79,90.79,90.69,90.7,4301
265,90.79,90.83,90.79,90.79,8077
266,90.78,90.8,90.76,90.79,5678
267,90.86,90.86,90.77,90.77,6480
268,90.8,90.83,90.79,90.82,4031
269,90.81,90.81,90.78,90.78,2250
270,90.82,90.85,90.78,90.79,7505
271,90.79,90.84,90.79,90.82,5896
272,90.86,90.86,90.8,90.8,5591
273,90.88,90.9,90.83,90.84,13382
274,90.97,90.97,90.87,90.87,71253
275,90.99,90.99,90.94,90.98,11251
276,90.95,90.98,90.9479,90.98,12084
277,90.87,90.98,90.87,90.96,5501
278,90.85,90.8714,90.84,90.86,8016
279,90.85,90.89,90.84,90.86,7666
280,90.9,90.9,90.85,90.86,8707
281,90.908,90.94,90.908,90.91,3039
282,90.91,90.94,90.9,90.915,2201
283,90.87,90.88,90.84,90.86,6546
284,90.89,90.89,90.86,90.86,3819
285,90.9414,90.96,90.89,90.89,4554
286,90.92,90.95,90.91,90.95,2446
287,90.91,90.91,90.88,90.91,4220
288,90.94,90.94,90.91,90.93,3016
289,90.98,90.99,90.95,90.95,6285
290,90.99,91,90.96,90.99,7298
291,90.99,91,90.97,90.97,3597
292,90.96,90.99,90.9,90.99,8246
293,90.975,90.98,90.92,90.96,8292
294,90.99,91.06,90.97,91.02,4767
295,91.06,91.06,90.94,90.98,5537
296,91.06,91.15,91,91.04,17368
297,91.04,91.16,91.04,91.08,5436
298,90.97,91.04,90.97,91.03,7515
299,91.05,91.06,90.95,90.95,4400
300,91.0407,91.08,91.03,91.06,6189
301,91.09,91.1099,91.05,91.05,5050
302,91.03,91.07,91.03,91.07,3762
303,91,91.035,90.94,91.03,5757
304,91.0499,91.0499,91,91,3948
305,91.01,91.05,91.01,91.04,3700
306,91.04,91.05,91.03,91.03,5536
307,91.07,91.07,91.06,91.06,4712
308,91.03,91.065,91.03,91.06,6008
309,91.05,91.06,91.04,91.04,3800
310,90.92,91.05,90.92,91.05,6782
311,90.915,90.96,90.9,90.91,9104
312,90.98,90.98,90.915,90.915,7966
313,90.955,90.98,90.94,90.98,7950
314,90.995,90.995,90.96,90.96,3112
315,91.04,91.06,91,91,6895
316,91,91.06,91,91.03,6207
317,90.965,91.03,90.94,91.01,6772
318,90.945,90.96,90.93,90.95,4379
319,90.93,90.94,90.89,90.92,6172
320,90.93,90.95,90.93,90.95,5413
321,90.879,90.93,90.87,90.92,5401
322,90.9,90.9,90.86,90.88,4900
323,90.92,90.95,90.9,90.9,4192
324,90.9399,90.94,90.9,90.9,3835
325,91,91.02,90.94,90.94,6802
326,91.01,91.03,90.995,91,6904
327,91.05,91.1,91.02,91.02,15011
328,91.08,91.08,91.02,91.02,2740
329,91.14,91.16,91.11,91.11,8586
330,91.14,91.15,91.11,91.14,8726
331,91.05,91.14,91.035,91.14,6928
332,91.05,91.07,91.04,91.04,9797
333,91.03,91.06,91,91.04,25086
334,91,91.03,90.99,91.03,11757
335,91,91.03,91,91,12166
336,91.04,91.06,90.99,91,10228
337,90.96,91.04,90.95,91.04,10406
338,90.99,90.99,90.96,90.96,5427
339,90.97,90.99,90.95,90.99,4640
340,90.97,91.01,90.95,90.95,10950
341,91.02,91.05,90.94,90.97,12850
342,91.1,91.11,91.02,91.04,4600
343,91.15,91.16,91.1,91.1,7677
344,91.13,91.17,91.11,91.16,5359
345,91.18,91.2,91.11,91.1298,6745
346,91.15,91.19,91.14,91.175,9630
347,91.19,91.19,91.15,91.15,6459
348,91.2,91.2,91.15,91.19,11285
349,91.13,91.22,91.13,91.19,5517
350,91.089,91.13,91.0768,91.11,9879
351,91.0101,91.075,91.0101,91.075,7467
352,90.955,91,90.955,91,4677
353,90.95,90.99,90.95,90.96,7902
354,90.945,90.96,90.94,90.96,4116
355,91.005,91.005,90.93,90.95,11178
356,91.1,91.1,91,91.01,13314
357,91.1,91.1,91.0712,91.1,8622
358,91.12,91.12,91.09,91.1,7413
359,91.03,91.11,91.02,91.11,13031
360,91.02,91.079,91.02,91.03,12619
361,91.015,91.045,90.99,91.02,11458
362,90.99,91.07,90.99,91.02,15280
363,90.97,91.01,90.97,90.98,9222
364,90.93,90.99,90.93,90.97,11508
365,90.86,90.91,90.86,90.91,10245
366,90.78,90.85,90.76,90.85,14620
367,90.715,90.77,90.715,90.77,8357
368,90.76,90.779,90.72,90.72,12662
369,90.72,90.79,90.72,90.77,7994
370,90.77,90.78,90.71,90.71,12619
371,90.79,90.81,90.725,90.775,9058
372,90.83,90.85,90.7401,90.8,30802
373,90.77,90.82,90.715,90.82,17365
374,90.805,90.8299,90.77,90.77,13970
375,90.76,90.84,90.76,90.8001,30923
376,90.79,90.83,90.78,90.78,21344
377,90.94,90.95,90.795,90.8,14011
378,90.88,90.94,90.8599,90.93,13736
379,90.93,90.95,90.88,90.88,13570
380,90.88,90.94,90.87,90.93,20314
381,90.79,90.89,90.79,90.88,16060
382,90.75,90.8,90.74,90.79,18423
383,90.71,90.76,90.69,90.75,25333
384,90.72,90.76,90.715,90.72,14571
385,90.72,90.74,90.71,90.72,22534
386,90.58,90.72,90.56,90.72,51946
387,90.58,90.6,90.56,90.57,47115
388,90.56,90.59,90.55,90.58,40996
389,90.581,90.6,90.559,90.559,47206
390,90.54,90.61,90.52,90.58,127249
