PPG,PPG Industries,Materials,8,Specialty Chemicals,28251055357,1275401
a1498829400,110.18,110.18,110.18,110.18,12548
1,109.97,110.095,109.66,109.87,2300
4,109.97,109.97,109.79,109.935,300
5,109.82,109.8308,109.82,109.8308,200
6,110,110,109.785,109.785,800
7,110.27,110.27,110.05,110.05,1300
8,110.37,110.3843,110.285,110.285,1200
9,110.2,110.28,110.2,110.28,1300
10,110.205,110.205,110.2,110.2,200
11,110.2586,110.2586,110.2,110.2,200
12,110.44,110.44,110.26,110.26,1200
13,110.41,110.46,110.38,110.44,2000
14,110.3769,110.3769,110.3769,110.3769,408
15,110.42,110.42,110.39,110.39,500
16,110.43,110.47,110.37,110.37,400
17,110.46,110.46,110.45,110.45,850
19,110.42,110.45,110.42,110.45,500
20,110.32,110.41,110.32,110.39,1000
21,110.45,110.45,110.39,110.39,1200
22,110.5,110.5,110.5,110.5,200
23,110.5,110.53,110.45,110.52,1300
26,110.38,110.48,110.36,110.48,4404
27,110.405,110.405,110.405,110.405,100
28,110.35,110.4,110.35,110.4,700
29,110.24,110.38,110.24,110.32,6600
30,110.15,110.2,110.15,110.2,600
31,110.18,110.18,110.14,110.14,1441
32,110.2,110.23,110.17,110.17,1700
33,110.12,110.18,110.12,110.18,5746
34,110.14,110.2,110.13,110.14,4120
35,110.15,110.17,110.13,110.13,800
36,110.09,110.12,110.09,110.12,500
37,110.03,110.05,109.98,110.04,1401
38,110.12,110.145,110.02,110.02,2201
39,110.16,110.16,110.13,110.13,200
40,110.179,110.202,110.179,110.202,270
41,110.16,110.2,110.16,110.2,510
42,110.095,110.13,110.095,110.13,700
43,110.12,110.12,110.11,110.11,800
44,110.1,110.1,110.1,110.1,600
45,110.07,110.1,110.07,110.1,600
46,110.1,110.1,110.02,110.02,290
47,110.05,110.0525,110.02,110.02,400
48,109.93,110.09,109.93,110.02,7601
49,109.91,109.97,109.84,109.97,6916
50,110.05,110.05,109.89,109.94,2586
51,110.12,110.12,110.06,110.06,300
53,110.18,110.18,110.18,110.18,100
55,110.145,110.18,110.145,110.18,200
56,110.16,110.18,110.16,110.18,200
57,110.12,110.155,110.1,110.155,2005
58,110.1,110.135,110.1,110.135,761
59,110.13,110.13,110.12,110.13,1889
60,110.17,110.17,110.14,110.14,700
61,110.21,110.21,110.16,110.1788,1600
62,110.16,110.205,110.16,110.2,908
64,110.14,110.14,110.14,110.14,200
65,110.23,110.23,110.18,110.18,500
66,110.25,110.25,110.23,110.23,300
67,110.24,110.24,110.24,110.24,100
68,110.265,110.29,110.26,110.265,700
69,110.2,110.29,110.2,110.29,1930
70,110.19,110.1991,110.19,110.1991,560
71,110.16,110.16,110.16,110.16,100
72,110.2,110.2,110.2,110.2,100
73,110.2,110.2,110.16,110.18,1500
74,110.24,110.26,110.2,110.22,3400
75,110.25,110.25,110.2,110.2,400
76,110.21,110.27,110.2,110.26,1900
77,110.18,110.2,110.18,110.2,400
78,110.18,110.19,110.18,110.18,400
79,110.18,110.18,110.18,110.18,200
80,110.16,110.16,110.155,110.155,300
81,110.15,110.18,110.15,110.18,801
82,110.1,110.15,110.1,110.13,900
83,110.06,110.08,110.06,110.08,300
84,110.05,110.05,110.05,110.05,200
85,110.15,110.15,110.1,110.1,1700
86,110.18,110.18,110.16,110.16,600
87,110.14,110.17,110.12,110.17,1900
88,110.17,110.17,110.12,110.12,400
89,110.1925,110.22,110.1925,110.2,2100
90,110.12,110.17,110.12,110.17,700
91,110.13,110.13,110.13,110.13,100
92,110.16,110.17,110.13,110.13,2006
93,110.19,110.19,110.14,110.14,700
94,110.18,110.2,110.16,110.2,700
97,110.17,110.17,110.17,110.17,400
99,110.18,110.2099,110.16,110.2,4551
100,110.185,110.2,110.185,110.19,700
101,110.16,110.2,110.16,110.2,1475
102,110.15,110.15,110.15,110.15,200
103,110.085,110.1433,110.085,110.1433,1320
104,110.08,110.1,110.08,110.1,300
105,110.09,110.11,110.09,110.1,2000
107,110.0499,110.08,110.0499,110.08,373
108,110.01,110.04,110.01,110.04,201
109,109.97,110.03,109.97,110.03,1366
110,109.96,109.96,109.96,109.96,100
111,109.9892,109.9892,109.9892,109.9892,100
112,110.01,110.01,109.98,109.99,1000
113,109.9725,109.99,109.9725,109.99,300
114,109.94,109.96,109.94,109.96,800
115,109.9,109.91,109.9,109.91,804
116,109.8775,109.9,109.86,109.86,800
117,109.9,109.91,109.9,109.91,700
118,109.89,109.92,109.89,109.92,200
119,109.91,109.91,109.91,109.91,1000
120,109.86,109.9,109.84,109.9,2591
121,109.82,109.82,109.79,109.8,700
122,109.85,109.85,109.84,109.84,869
123,109.855,109.86,109.855,109.86,540
124,109.9,109.91,109.85,109.85,1110
125,109.94,109.97,109.94,109.96,1700
126,109.99,110.0159,109.98,109.98,1330
127,109.9702,110,109.9702,110,235
128,110,110.01,109.97,110,3500
129,109.98,109.98,109.98,109.98,100
130,109.97,109.98,109.96,109.98,1234
131,109.98,109.98,109.96,109.97,661
132,110.0124,110.0124,109.99,109.99,2146
133,109.98,110.03,109.97,110.03,1500
134,110,110.03,109.98,109.98,1300
135,109.98,110.01,109.98,110.01,600
136,109.94,109.9601,109.94,109.9601,600
137,109.96,109.96,109.96,109.96,500
138,109.963,109.963,109.963,109.963,160
139,109.945,110,109.945,109.99,2500
140,109.945,109.945,109.945,109.945,100
141,109.92,109.94,109.92,109.94,1107
142,109.89,109.91,109.89,109.91,600
143,109.91,109.91,109.89,109.89,1300
144,109.91,109.91,109.89,109.89,500
145,109.92,109.92,109.9,109.9,400
146,109.95,109.96,109.92,109.92,1966
147,109.9,109.95,109.9,109.95,2100
148,109.9,109.9,109.89,109.89,568
149,109.87,109.87,109.87,109.87,100
150,109.91,109.91,109.88,109.88,1537
151,109.91,109.91,109.91,109.91,100
152,109.9,109.9,109.885,109.9,600
153,109.95,109.95,109.91,109.91,900
154,109.92,109.95,109.92,109.95,1100
155,109.925,109.925,109.92,109.92,345
156,109.9,109.92,109.9,109.92,600
157,109.94,109.94,109.92,109.92,1100
158,109.94,109.94,109.94,109.94,100
159,109.92,109.94,109.92,109.94,1100
160,109.885,109.91,109.88,109.89,800
161,109.886,109.886,109.886,109.886,639
162,109.91,109.91,109.9,109.9,500
163,109.905,109.905,109.905,109.905,400
164,109.85,109.89,109.85,109.89,1300
165,109.81,109.88,109.81,109.88,4967
166,109.79,109.8,109.79,109.8,1400
167,109.7801,109.8,109.7801,109.8,700
168,109.78,109.781,109.78,109.781,1500
169,109.77,109.7886,109.77,109.7886,207
171,109.77,109.79,109.76,109.79,900
172,109.76,109.77,109.76,109.77,1102
173,109.75,109.76,109.75,109.76,200
174,109.77,109.78,109.76,109.76,2300
175,109.77,109.77,109.77,109.77,200
176,109.7599,109.765,109.7599,109.765,1387
177,109.79,109.79,109.74,109.75,4100
178,109.85,109.85,109.79,109.79,1000
179,109.9,109.9,109.85,109.85,900
180,109.91,109.91,109.885,109.9,500
181,109.89,109.89,109.89,109.89,1510
183,109.9013,109.9013,109.89,109.89,849
184,109.85,109.93,109.8152,109.91,5180
185,109.88,109.88,109.86,109.86,700
186,109.84,109.85,109.84,109.85,1300
187,109.83,109.83,109.78,109.82,2928
188,109.79,109.82,109.76,109.82,1400
189,109.76,109.77,109.75,109.77,1900
190,109.7,109.74,109.69,109.74,2300
191,109.71,109.71,109.68,109.68,400
192,109.68,109.7114,109.68,109.69,2476
193,109.67,109.6924,109.67,109.68,409
194,109.7,109.7,109.67,109.67,1100
195,109.69,109.71,109.69,109.71,400
196,109.71,109.71,109.68,109.707,1448
198,109.68,109.69,109.68,109.69,300
199,109.7,109.72,109.66,109.68,2500
200,109.69,109.71,109.69,109.7,800
201,109.71,109.71,109.71,109.71,200
202,109.72,109.72,109.71,109.71,904
203,109.73,109.73,109.73,109.73,100
204,109.75,109.75,109.75,109.75,100
205,109.69,109.77,109.69,109.77,1908
207,109.68,109.69,109.68,109.69,300
208,109.68,109.69,109.67,109.67,1300
209,109.69,109.69,109.67,109.67,1000
210,109.71,109.71,109.71,109.71,120
212,109.74,109.74,109.74,109.74,100
213,109.74,109.74,109.73,109.73,900
214,109.75,109.75,109.75,109.75,100
216,109.7,109.73,109.7,109.72,1200
217,109.75,109.75,109.73,109.73,1200
219,109.74,109.74,109.74,109.74,568
220,109.74,109.75,109.74,109.74,800
221,109.78,109.78,109.7302,109.7302,1200
222,109.8,109.82,109.78,109.78,1221
223,109.86,109.86,109.82,109.82,985
226,109.87,109.87,109.87,109.87,100
227,109.92,109.92,109.88,109.89,1600
228,109.95,109.95,109.95,109.95,100
230,109.945,109.97,109.945,109.97,300
233,109.93,109.93,109.93,109.93,700
234,109.95,109.95,109.95,109.95,100
235,109.89,109.93,109.89,109.93,2500
236,109.88,109.89,109.875,109.89,1500
237,109.85,109.88,109.85,109.88,800
238,109.87,109.87,109.86,109.86,1000
239,109.98,109.98,109.88,109.88,2191
240,109.95,109.95,109.95,109.95,100
241,109.92,109.95,109.92,109.95,1100
242,109.89,109.92,109.89,109.92,900
243,109.91,109.91,109.88,109.88,200
244,109.91,109.91,109.9,109.9,1300
245,109.89,109.9002,109.89,109.9002,500
246,109.9,109.9,109.895,109.895,300
247,109.885,109.92,109.885,109.905,1709
248,109.94,109.94,109.885,109.89,900
249,109.91,109.91,109.91,109.91,500
250,109.92,109.92,109.89,109.91,1200
251,109.98,109.98,109.92,109.92,500
252,109.94,109.94,109.94,109.94,200
254,109.92,109.93,109.92,109.93,900
258,109.8988,109.9056,109.8988,109.9056,413
259,109.91,109.91,109.91,109.91,220
260,109.91,109.91,109.91,109.91,100
261,109.93,109.93,109.92,109.92,700
263,109.97,109.98,109.95,109.95,1700
264,109.95,109.97,109.95,109.97,400
265,109.95,109.95,109.94,109.95,711
266,109.93,109.95,109.91,109.94,2677
267,109.89,109.91,109.89,109.91,1300
268,109.88,109.9,109.88,109.9,600
270,109.9,109.9,109.88,109.88,849
271,109.9,109.9,109.89,109.9,1900
272,109.92,109.92,109.89,109.9,2610
273,109.9,109.9,109.9,109.9,200
274,109.9002,109.9002,109.9,109.9,312
275,109.9,109.905,109.9,109.905,351
277,109.9,109.91,109.9,109.9,1255
278,109.9,109.92,109.89,109.919,3006
279,109.9,109.9,109.9,109.9,200
280,109.9,109.92,109.9,109.9,2000
281,109.94,109.95,109.91,109.91,1700
282,109.92,109.94,109.9,109.94,2000
283,109.905,109.905,109.9,109.905,500
284,109.93,109.9325,109.9,109.9,4372
285,110.01,110.02,109.96,109.96,1200
286,109.985,110,109.985,110,600
287,109.96,109.9851,109.96,109.96,1419
288,110,110,109.9799,109.98,900
289,110,110.02,110,110.01,1573
290,110.06,110.06,110,110,3450
291,110.06,110.0611,110.06,110.06,1058
292,110.06,110.07,110.05,110.0602,1971
293,110.05,110.0557,110.05,110.0557,790
294,110.07,110.07,110.07,110.07,100
295,110.115,110.115,110.115,110.115,200
296,110.09,110.1,110.084,110.084,1600
297,110.081,110.09,110.081,110.09,1190
298,110.08,110.08,110.08,110.08,302
299,110.1,110.1,110.07,110.07,1200
300,110.1,110.11,110.09,110.11,902
301,110.05,110.08,110.05,110.08,800
302,110.07,110.07,110.04,110.04,598
303,110.09,110.09,110.09,110.09,400
305,110.13,110.13,110.09,110.09,500
307,110.14,110.14,110.13,110.14,700
308,110.14,110.14,110.12,110.14,400
309,110.135,110.135,110.12,110.12,200
310,110.14,110.14,110.13,110.135,500
311,110.15,110.15,110.1366,110.1366,1059
312,110.13,110.14,110.1,110.14,3353
314,110.15,110.16,110.15,110.15,716
315,110.18,110.18,110.18,110.18,200
316,110.17,110.175,110.16,110.17,1400
317,110.19,110.21,110.17,110.18,1200
318,110.215,110.215,110.2,110.2,300
319,110.22,110.23,110.21,110.23,500
320,110.27,110.27,110.22,110.23,700
321,110.26,110.27,110.26,110.27,200
322,110.26,110.26,110.25,110.26,1034
323,110.27,110.27,110.24,110.25,1000
324,110.27,110.27,110.27,110.27,200
325,110.29,110.29,110.29,110.29,100
326,110.38,110.38,110.319,110.32,600
327,110.29,110.37,110.29,110.33,3345
328,110.28,110.29,110.27,110.27,1100
329,110.27,110.28,110.27,110.28,300
330,110.26,110.28,110.26,110.27,1700
331,110.27,110.28,110.26,110.26,1400
333,110.22,110.26,110.2,110.26,3400
334,110.23,110.23,110.22,110.22,300
336,110.22,110.23,110.22,110.23,700
337,110.21,110.21,110.21,110.21,300
339,110.22,110.225,110.22,110.22,1000
340,110.22,110.24,110.22,110.23,1600
341,110.21,110.24,110.21,110.23,2220
342,110.2,110.215,110.2,110.215,1300
343,110.19,110.21,110.19,110.2,1000
344,110.18,110.21,110.18,110.2,1630
345,110.18,110.19,110.17,110.17,2200
346,110.185,110.19,110.18,110.19,800
347,110.185,110.19,110.1825,110.1825,400
348,110.15,110.19,110.13,110.19,6421
349,110.135,110.15,110.135,110.15,700
350,110.13,110.16,110.13,110.14,4100
351,110.12,110.12,110.12,110.12,100
352,110.16,110.16,110.13,110.13,700
353,110.18,110.18,110.17,110.17,400
354,110.1738,110.1738,110.1738,110.1738,157
355,110.25,110.25,110.18,110.18,2000
356,110.26,110.26,110.24,110.26,2100
357,110.26,110.285,110.26,110.26,2000
358,110.27,110.27,110.25,110.26,1250
359,110.29,110.29,110.29,110.29,200
360,110.3,110.3,110.26,110.29,1062
361,110.29,110.29,110.28,110.29,1300
362,110.26,110.27,110.24,110.27,1700
363,110.22,110.26,110.22,110.26,1607
364,110.18,110.22,110.18,110.22,2581
365,110.21,110.21,110.18,110.18,2200
366,110.21,110.23,110.21,110.23,1000
367,110.22,110.22,110.21,110.21,600
368,110.23,110.23,110.21,110.22,1300
369,110.23,110.24,110.225,110.225,2599
370,110.26,110.26,110.22,110.22,2000
371,110.28,110.28,110.24,110.27,3183
372,110.29,110.3,110.29,110.29,700
373,110.29,110.3,110.28,110.3,2201
374,110.34,110.34,110.29,110.29,2500
375,110.4,110.4,110.34,110.34,2800
376,110.45,110.45,110.395,110.4,1700
377,110.4408,110.45,110.43,110.43,2392
378,110.45,110.49,110.45,110.46,1500
379,110.47,110.47,110.445,110.45,2000
380,110.44,110.48,110.44,110.47,3528
381,110.37,110.45,110.37,110.45,5386
382,110.35,110.3646,110.33,110.3646,3991
383,110.31,110.34,110.31,110.34,1900
384,110.29,110.3145,110.29,110.3145,2582
385,110.27,110.29,110.27,110.29,4669
386,110.25,110.26,110.25,110.26,3974
387,110.22,110.26,110.21,110.26,5848
388,110.14,110.22,110.14,110.22,6602
389,110.11,110.17,110.11,110.14,7256
390,109.98,110.1,109.95,110.1,28355
