PPG,PPG Industries,Materials,8,Specialty Chemicals,25682234171,1433924
a1502458440,101.265,101.56,101.15,101.56,18162
1,101.005,101.18,101.005,101.17,1520
2,100.97,101.09,100.95,100.99,2850
3,101.23,101.23,100.99,100.99,6200
4,101.15,101.21,101.13,101.21,1700
5,101.15,101.2,101.11,101.12,6154
6,101.07,101.2,101.07,101.19,1800
7,100.99,101.13,100.98,101.12,2100
8,100.88,100.99,100.88,100.99,2100
9,100.8336,100.97,100.81,100.89,4296
10,100.8,100.9,100.8,100.86,4896
11,100.84,100.93,100.79,100.83,5947
12,100.84,100.9,100.81,100.81,5700
13,100.8,100.87,100.8,100.84,1283
14,100.61,100.78,100.57,100.78,1000
15,100.77,100.77,100.67,100.67,6084
16,100.8,100.8,100.72,100.78,1800
17,100.84,100.85,100.79,100.8,20900
18,100.89,100.9,100.82,100.84,2970
19,100.9,100.91,100.84,100.89,3770
20,100.93,100.93,100.93,100.93,100
21,100.92,100.95,100.92,100.92,2844
23,100.89,100.92,100.89,100.92,2149
24,100.847,100.893,100.82,100.891,3184
25,100.86,100.86,100.83,100.83,1760
26,100.86,100.86,100.86,100.86,100
27,100.865,100.8776,100.865,100.8776,938
28,100.87,100.89,100.87,100.88,1900
29,100.85,100.87,100.84,100.86,1895
30,100.81,100.88,100.78,100.85,9271
31,100.75,100.81,100.74,100.81,3333
32,100.85,100.85,100.745,100.745,7000
33,100.85,100.86,100.84,100.84,1500
34,100.88,100.89,100.84,100.84,6272
35,101.015,101.02,100.87,100.87,6863
36,101.06,101.08,101,101.03,6129
37,101.09,101.1,101.06,101.08,2200
38,101.13,101.14,101.08,101.08,2193
39,101.19,101.19,101.16,101.16,1996
40,101.27,101.27,101.16,101.18,3650
41,101.25,101.26,101.25,101.26,1000
42,101.24,101.24,101.24,101.24,200
43,101.21,101.245,101.21,101.245,800
44,101.14,101.2,101.14,101.2,1317
45,101.16,101.16,101.14,101.14,500
46,101.11,101.15,101.11,101.15,800
47,101.06,101.09,101.06,101.09,558
48,101.04,101.06,101.04,101.055,900
49,101.07,101.0999,101.04,101.04,4531
50,101.07,101.08,101.06,101.06,600
51,101.08,101.1,101.08,101.09,1150
52,101.075,101.09,101.06,101.075,7133
53,101.13,101.13,101.07,101.07,5764
54,101.14,101.14,101.12,101.12,300
55,101.1,101.13,101.1,101.13,2100
56,101.15,101.15,101.1,101.1,3250
57,101.12,101.17,101.12,101.14,4478
58,101.1,101.11,101.1,101.11,385
59,101.0985,101.0985,101.0985,101.0985,100
60,101.07,101.08,101.06,101.08,705
61,101.07,101.07,101.03,101.07,4000
62,101.04,101.09,101.01,101.03,12406
63,100.97,101.08,100.97,101.08,9227
64,100.95,100.98,100.92,100.97,6660
65,100.97,100.99,100.91,100.92,2644
66,100.94,100.97,100.93,100.97,1400
67,100.9652,100.9652,100.94,100.95,360
68,101.03,101.03,100.97,100.97,5100
69,101.04,101.09,101.04,101.07,2355
70,101.01,101.04,100.96,101.04,1218
71,101.02,101.02,100.99,100.99,608
72,100.99,101,100.96,101,1900
73,101.03,101.03,100.96,100.99,10850
74,101.03,101.06,101.03,101.04,3300
75,101.02,101.07,101.02,101.05,1622
76,101,101.04,100.99,101.02,1630
77,101.02,101.02,100.95,100.97,3397
78,101.03,101.06,101.02,101.02,2300
79,101.03,101.05,101.03,101.03,800
80,100.93,101.03,100.93,101.03,4417
81,100.86,100.92,100.86,100.92,2223
82,100.9,100.92,100.88,100.88,3005
83,100.89,100.9,100.89,100.9,424
84,100.93,100.93,100.9,100.92,1600
85,100.92,100.92,100.9,100.9,400
86,100.9384,100.94,100.9,100.9,2508
87,100.95,100.95,100.95,100.95,100
88,100.94,100.96,100.93,100.93,1100
89,100.93,100.95,100.93,100.94,1900
90,100.94,100.97,100.94,100.94,6906
91,100.94,100.95,100.91,100.94,3694
92,100.97,100.97,100.94,100.94,1541
93,100.98,101,100.96,100.97,3519
94,100.9515,100.99,100.9515,100.99,1572
95,100.85,100.95,100.85,100.95,3826
96,100.843,100.843,100.84,100.84,295
97,100.89,100.89,100.86,100.86,1997
98,100.9,100.9,100.87,100.89,1058
99,100.87,100.87,100.86,100.87,500
100,100.9,100.9,100.89,100.89,300
101,100.84,100.9,100.84,100.9,3400
102,100.84,100.84,100.83,100.84,400
103,100.79,100.81,100.79,100.81,1207
104,100.8,100.81,100.77,100.77,3042
105,100.79,100.83,100.78,100.8,3301
106,100.79,100.8,100.77,100.8,1600
107,100.73,100.8,100.73,100.8,2111
108,100.75,100.75,100.72,100.73,1290
109,100.71,100.74,100.69,100.74,3000
110,100.57,100.71,100.54,100.71,7018
111,100.6,100.61,100.54,100.59,7079
112,100.63,100.64,100.6,100.6,6387
113,100.71,100.75,100.63,100.63,2050
114,100.63,100.68,100.61,100.68,2200
115,100.49,100.7,100.45,100.65,17650
116,100.55,100.55,100.47,100.5,5692
117,100.6,100.66,100.54,100.54,3392
118,100.605,100.61,100.59,100.61,900
119,100.67,100.68,100.62,100.62,3337
120,100.69,100.69,100.682,100.682,1537
121,100.695,100.695,100.695,100.695,200
122,100.72,100.78,100.71,100.71,3400
123,100.64,100.73,100.64,100.73,700
124,100.67,100.67,100.63,100.63,1100
125,100.69,100.69,100.6724,100.6724,746
126,100.73,100.73,100.675,100.69,2252
127,100.77,100.8,100.73,100.73,3058
128,100.77,100.77,100.76,100.77,4459
129,100.72,100.77,100.71,100.77,3457
130,100.75,100.75,100.74,100.74,800
131,100.73,100.75,100.73,100.7432,1200
132,100.8,100.8,100.71,100.72,6763
133,100.73,100.8,100.73,100.79,8131
134,100.72,100.77,100.72,100.75,25000
135,100.8,100.8,100.72,100.72,4506
136,100.79,100.79,100.76,100.79,1747
137,100.84,100.85,100.78,100.78,8078
138,100.85,100.85,100.82,100.85,3800
139,100.82,100.85,100.82,100.84,2850
140,100.84,100.84,100.815,100.815,600
141,100.85,100.85,100.84,100.85,7224
142,100.85,100.85,100.83,100.84,3250
143,100.85,100.85,100.85,100.85,801
144,100.81,100.85,100.8,100.85,2526
145,100.84,100.84,100.83,100.84,500
146,100.83,100.83,100.79,100.82,1806
147,100.85,100.85,100.84,100.84,2020
148,100.85,100.85,100.81,100.84,2701
149,100.83,100.84,100.83,100.84,700
150,100.84,100.84,100.84,100.84,100
151,100.81,100.82,100.81,100.82,600
152,100.7586,100.8,100.75,100.8,2740
154,100.84,100.84,100.8,100.8,1400
155,100.77,100.82,100.74,100.79,4200
156,100.78,100.8,100.78,100.78,500
157,100.85,100.85,100.81,100.81,700
158,100.9,100.9,100.83,100.83,6068
159,100.82,100.9,100.81,100.9,28147
160,100.8,100.85,100.79,100.82,6827
161,100.85,100.85,100.76,100.79,1899
162,100.85,100.85,100.84,100.85,1800
163,100.85,100.85,100.83,100.85,2100
164,100.85,100.85,100.83,100.85,1707
165,100.84,100.85,100.84,100.85,307
166,100.77,100.84,100.77,100.84,2523
167,100.77,100.815,100.77,100.8,9978
168,100.7241,100.76,100.72,100.76,1200
169,100.76,100.8,100.73,100.75,8300
170,100.77,100.78,100.76,100.76,1250
171,100.75,100.77,100.75,100.77,1450
172,100.68,100.77,100.66,100.75,6350
173,100.685,100.69,100.67,100.67,900
174,100.68,100.69,100.68,100.69,400
175,100.67,100.7,100.67,100.69,1371
176,100.68,100.69,100.66,100.66,1378
177,100.72,100.73,100.71,100.71,1300
178,100.73,100.73,100.71,100.71,1100
179,100.71,100.72,100.7,100.72,1100
180,100.71,100.72,100.7,100.71,1400
181,100.68,100.68,100.68,100.68,300
182,100.72,100.72,100.69,100.69,885
183,100.74,100.74,100.73,100.73,1100
185,100.7556,100.7556,100.7556,100.7556,100
186,100.76,100.77,100.7572,100.7572,1000
187,100.75,100.76,100.74,100.76,1500
188,100.77,100.77,100.76,100.76,2851
189,100.82,100.82,100.78,100.78,1600
190,100.81,100.81,100.81,100.81,1300
192,100.82,100.82,100.82,100.82,500
193,100.82,100.82,100.82,100.82,800
194,100.8399,100.8399,100.8,100.83,1676
195,100.79,100.82,100.7738,100.82,19502
196,100.77,100.8,100.76,100.77,1800
197,100.8,100.8,100.77,100.77,500
198,100.82,100.825,100.8,100.825,4633
199,100.79,100.82,100.79,100.8,1420
200,100.77,100.81,100.77,100.8,1711
201,100.75,100.78,100.725,100.78,24021
202,100.78,100.78,100.72,100.72,800
203,100.78,100.78,100.78,100.78,100
204,100.745,100.75,100.745,100.75,1300
205,100.74,100.77,100.74,100.77,4300
206,100.75,100.76,100.74,100.75,6300
207,100.73,100.76,100.72,100.76,4382
208,100.68,100.72,100.68,100.72,2750
209,100.71,100.71,100.6501,100.6501,1430
210,100.71,100.71,100.71,100.71,100
211,100.72,100.74,100.72,100.72,700
212,100.75,100.75,100.74,100.74,400
213,100.7183,100.75,100.7183,100.75,1403
214,100.73,100.76,100.72,100.72,7968
215,100.755,100.76,100.73,100.75,6100
216,100.7792,100.79,100.76,100.76,8100
217,100.78,100.79,100.78,100.79,400
218,100.7459,100.8,100.7459,100.79,7001
219,100.77,100.77,100.745,100.75,6495
221,100.72,100.75,100.72,100.75,2201
222,100.71,100.72,100.71,100.72,8098
223,100.69,100.72,100.69,100.71,3068
224,100.71,100.73,100.69,100.69,3701
226,100.67,100.72,100.67,100.72,2500
227,100.68,100.69,100.675,100.68,1100
228,100.7,100.7,100.6995,100.6995,328
229,100.67,100.71,100.67,100.71,4921
230,100.66,100.67,100.66,100.66,1800
231,100.66,100.67,100.66,100.67,500
232,100.71,100.71,100.6638,100.6638,1606
233,100.69,100.705,100.69,100.705,7500
234,100.69,100.721,100.69,100.72,3400
235,100.69,100.71,100.67,100.6968,4146
236,100.72,100.72,100.65,100.67,2863
237,100.695,100.73,100.69,100.72,4250
238,100.72,100.72,100.71,100.71,200
239,100.72,100.74,100.71,100.72,9200
240,100.71,100.72,100.71,100.72,200
241,100.7158,100.7158,100.7158,100.7158,100
242,100.695,100.715,100.695,100.715,800
243,100.73,100.73,100.72,100.72,775
244,100.7109,100.7109,100.7109,100.7109,193
245,100.71,100.73,100.71,100.73,400
246,100.73,100.73,100.73,100.73,627
247,100.7,100.74,100.69,100.74,2100
248,100.67,100.7034,100.66,100.7034,1258
249,100.68,100.68,100.635,100.64,2700
250,100.66,100.68,100.66,100.68,600
252,100.6462,100.67,100.6462,100.66,900
253,100.67,100.67,100.67,100.67,200
255,100.71,100.71,100.71,100.71,100
256,100.72,100.72,100.7,100.7,1200
257,100.72,100.72,100.7,100.7,800
258,100.7155,100.72,100.71,100.72,1793
259,100.705,100.71,100.705,100.71,1000
260,100.71,100.72,100.705,100.7099,2200
262,100.69,100.731,100.62,100.71,24884
263,100.685,100.685,100.685,100.685,100
264,100.69,100.69,100.67,100.67,400
265,100.7,100.73,100.7,100.73,2400
266,100.7,100.7,100.7,100.7,800
267,100.645,100.69,100.645,100.69,500
268,100.66,100.67,100.66,100.67,1247
269,100.66,100.66,100.65,100.66,1470
270,100.66,100.66,100.63,100.66,1400
271,100.64,100.64,100.635,100.64,669
272,100.64,100.64,100.62,100.63,900
273,100.66,100.67,100.63,100.63,6345
274,100.66,100.67,100.66,100.67,1600
275,100.65,100.68,100.64,100.68,1300
276,100.685,100.685,100.68,100.68,300
277,100.7,100.72,100.67,100.67,1200
278,100.7,100.71,100.7,100.7,410
279,100.76,100.76,100.68,100.7,6000
280,100.7156,100.76,100.7156,100.74,32760
281,100.75,100.75,100.72,100.73,14085
282,100.86,100.86,100.78,100.78,600
283,100.845,100.895,100.845,100.89,2200
284,100.87,100.87,100.845,100.845,3165
285,100.87,100.87,100.81,100.82,3324
286,100.84,100.87,100.84,100.87,3097
287,100.87,100.87,100.8,100.86,5799
288,100.83,100.89,100.81,100.8896,2460
289,100.81,100.83,100.81,100.81,3700
290,100.73,100.81,100.72,100.8,1650
291,100.75,100.759,100.75,100.75,1332
292,100.72,100.77,100.71,100.77,19093
293,100.775,100.79,100.72,100.72,4300
294,100.77,100.815,100.77,100.78,1400
295,100.7632,100.7632,100.7632,100.7632,808
296,100.82,100.82,100.79,100.79,300
297,100.8225,100.86,100.8,100.825,16100
298,100.74,100.83,100.74,100.81,3900
299,100.75,100.78,100.72,100.75,23825
300,100.78,100.78,100.72,100.73,1500
302,100.7166,100.75,100.7,100.75,3003
303,100.74,100.74,100.7,100.7063,1175
304,100.72,100.76,100.72,100.72,530
305,100.67,100.745,100.67,100.745,2842
306,100.69,100.74,100.69,100.72,823
307,100.76,100.7899,100.74,100.74,2494
308,100.78,100.81,100.76,100.81,400
309,100.81,100.81,100.77,100.77,1100
310,100.8,100.83,100.8,100.83,1000
311,100.77,100.78,100.77,100.78,200
312,100.75,100.8,100.75,100.76,1150
313,100.79,100.79,100.76,100.76,200
314,100.75,100.79,100.75,100.76,300
315,100.75,100.77,100.75,100.77,1882
316,100.75,100.77,100.75,100.75,1000
317,100.755,100.76,100.73,100.74,600
318,100.78,100.78,100.77,100.78,1200
319,100.76,100.77,100.76,100.77,700
320,100.71,100.78,100.71,100.78,3475
321,100.66,100.7,100.66,100.7,1668
322,100.67,100.72,100.65,100.65,1618
323,100.66,100.68,100.66,100.68,400
324,100.67,100.7,100.67,100.69,600
325,100.7,100.71,100.65,100.71,800
326,100.62,100.68,100.62,100.65,1548
327,100.69,100.7,100.63,100.63,1600
328,100.7,100.73,100.7,100.7,700
329,100.711,100.725,100.71,100.72,609
330,100.72,100.74,100.72,100.74,300
331,100.78,100.78,100.7,100.72,3018
332,100.73,100.76,100.72,100.75,3214
334,100.73,100.76,100.73,100.74,2525
335,100.73,100.75,100.73,100.73,2200
336,100.73,100.73,100.72,100.73,500
337,100.71,100.74,100.71,100.72,2423
338,100.71,100.71,100.71,100.71,100
339,100.74,100.75,100.73,100.74,1100
340,100.74,100.74,100.72,100.73,400
341,100.69,100.73,100.69,100.73,2635
342,100.69,100.73,100.68,100.68,2851
343,100.7,100.7,100.7,100.7,300
344,100.69,100.7,100.68,100.68,800
345,100.6701,100.68,100.6701,100.68,1238
346,100.67,100.7,100.67,100.68,2904
347,100.705,100.705,100.69,100.69,1116
348,100.72,100.73,100.7045,100.72,400
349,100.73,100.73,100.715,100.715,1500
350,100.76,100.76,100.74,100.74,1653
351,100.78,100.8,100.77,100.77,2093
352,100.76,100.8,100.76,100.77,4090
353,100.765,100.77,100.76,100.76,1100
354,100.755,100.76,100.75,100.75,1650
355,100.78,100.78,100.76,100.76,3465
356,100.765,100.77,100.76,100.77,1100
357,100.75,100.77,100.74,100.765,3551
358,100.7,100.74,100.69,100.74,3079
359,100.68,100.7,100.68,100.7,1700
360,100.695,100.71,100.68,100.68,2750
361,100.71,100.71,100.7,100.7,1700
362,100.71,100.72,100.7,100.72,819
363,100.7076,100.72,100.7,100.72,1920
364,100.71,100.72,100.69,100.72,2451
365,100.73,100.73,100.705,100.71,1713
366,100.785,100.785,100.75,100.75,2226
367,100.79,100.8,100.78,100.785,1853
368,100.79,100.79,100.78,100.79,1600
369,100.79,100.79,100.77,100.78,4354
370,100.76,100.79,100.75,100.78,6962
371,100.76,100.77,100.745,100.755,22854
372,100.75,100.775,100.745,100.76,20686
373,100.75,100.76,100.75,100.75,5964
374,100.76,100.76,100.745,100.76,12174
375,100.77,100.77,100.74,100.75,5170
376,100.78,100.78,100.75,100.77,6500
377,100.75,100.77,100.75,100.76,3138
378,100.78,100.785,100.75,100.76,5065
379,100.77,100.78,100.77,100.78,3450
380,100.77,100.79,100.77,100.78,2999
381,100.78,100.79,100.77,100.78,3255
382,100.78,100.79,100.77,100.78,9136
383,100.76,100.79,100.75,100.79,8092
384,100.73,100.77,100.71,100.77,6410
385,100.74,100.75,100.71,100.72,14982
386,100.72,100.74,100.65,100.74,35833
