PPG,PPG Industries,Materials,8,Specialty Chemicals,28743069880,1133316
a1497274260,110.42,110.47,109.95,110,19940
1,110.44,110.565,110.21,110.32,1905
2,110.43,110.43,110.27,110.322,1528
3,110.5,110.5,110.49,110.49,613
4,110.395,110.48,110.22,110.48,2817
5,110.49,110.52,110.4,110.4,7150
6,110.495,110.5,110.41,110.46,2500
7,110.7,110.7,110.53,110.54,12818
8,110.66,110.755,110.5253,110.755,3025
9,110.73,110.84,110.63,110.66,2253
10,110.4,110.7,110.395,110.7,4828
11,110.5605,110.5605,110.4,110.4,3043
12,110.435,110.63,110.4,110.58,3150
13,110.46,110.47,110.39,110.39,4700
14,110.45,110.48,110.42,110.46,3500
15,110.46,110.51,110.43,110.45,600
16,110.34,110.34,110.29,110.34,1100
17,110.29,110.4,110.29,110.3,2100
18,110.3,110.31,110.27,110.31,1400
19,110.3,110.33,110.28,110.31,6108
20,110.3,110.355,110.3,110.3,6731
21,110.33,110.37,110.3,110.3,4669
22,110.3,110.33,110.3,110.33,8047
23,110.13,110.29,110.13,110.29,1900
24,110.28,110.33,110.151,110.151,3440
25,110.3,110.41,110.3,110.41,2300
26,110.22,110.29,110.22,110.29,1700
27,110.17,110.26,110.12,110.18,1900
28,110.2421,110.2421,110.16,110.2,900
29,109.9,110.16,109.9,110.16,1682
30,109.87,109.95,109.87,109.95,1110
31,109.95,109.95,109.86,109.86,4200
32,109.93,110.01,109.9,109.95,6898
33,110.1,110.1,109.93,109.93,6311
34,110.14,110.14,110.06,110.14,8111
35,110.1,110.17,110.1,110.16,4800
36,110.115,110.12,109.99,110.09,4365
37,109.98,110.11,109.98,110.1027,1881
38,110.07,110.07,110.04,110.06,300
39,110.04,110.1,110.03,110.03,2800
40,110.14,110.14,110.035,110.035,1200
41,110.2,110.235,110.18,110.18,2700
42,110.09,110.2,110.09,110.2,2300
43,110.03,110.1325,110.01,110.03,2566
44,110.185,110.26,109.99,110.02,7550
45,110.15,110.19,110.12,110.15,3707
46,110.15,110.22,110.11,110.14,5082
47,110.16,110.16,110.12,110.16,3400
48,110.21,110.24,110.17,110.19,4961
49,110.3,110.3,110.23,110.23,15800
50,110.37,110.49,110.36,110.38,4650
51,110.4,110.4,110.33,110.34,800
52,110.31,110.41,110.31,110.41,2100
53,110.27,110.295,110.27,110.27,390
54,110.21,110.27,110.2,110.27,1500
55,110.2,110.24,110.2,110.24,2638
56,110.21,110.225,110.18,110.19,1500
57,110.15,110.25,110.15,110.25,2700
58,110.27,110.31,110.13,110.13,14491
59,110.33,110.33,110.24,110.26,1000
60,110.27,110.35,110.27,110.3,600
61,110.22,110.26,110.22,110.26,700
62,110.11,110.23,110.11,110.22,4636
63,110.23,110.23,110.06,110.11,7130
64,110.25,110.27,110.21,110.255,1900
65,110.2999,110.2999,110.22,110.24,900
66,110.27,110.28,110.27,110.27,800
67,110.28,110.29,110.25,110.27,14000
68,110.28,110.32,110.27,110.27,19970
69,110.28,110.31,110.28,110.31,5200
70,110.285,110.3,110.25,110.27,5591
71,110.3,110.32,110.28,110.29,2620
72,110.31,110.33,110.27,110.31,8200
73,110.32,110.32,110.27,110.3,5600
74,110.39,110.42,110.345,110.345,3200
75,110.445,110.48,110.37,110.38,4311
76,110.455,110.47,110.43,110.44,1739
77,110.36,110.44,110.36,110.44,1200
78,110.19,110.34,110.19,110.32,2174
79,110.21,110.28,110.18,110.21,11700
80,110.22,110.22,110.18,110.18,600
81,110.25,110.285,110.2,110.22,11581
82,110.215,110.26,110.21,110.26,33227
83,110.265,110.27,110.2,110.21,18800
84,110.27,110.32,110.24,110.28,7100
85,110.33,110.36,110.295,110.33,5829
86,110.42,110.42,110.345,110.345,6531
87,110.45,110.45,110.36,110.395,5500
88,110.45,110.45,110.38,110.425,5360
89,110.48,110.51,110.47,110.47,1200
90,110.5,110.5,110.45,110.475,2700
91,110.45,110.47,110.43,110.46,4307
92,110.375,110.47,110.29,110.47,15084
93,110.24,110.375,110.24,110.34,3879
94,110.2428,110.3,110.21,110.28,5800
95,110.235,110.27,110.23,110.24,1000
96,110.28,110.28,110.23,110.23,7850
97,110.23,110.28,110.23,110.275,6202
98,110.19,110.24,110.16,110.22,4447
99,110.18,110.19,110.14,110.16,3900
100,110.2,110.27,110.175,110.175,8100
101,110.2,110.26,110.2,110.215,1800
102,110.165,110.205,110.13,110.2,7500
103,110.13,110.16,110.05,110.16,7619
104,110.09,110.16,110.09,110.16,4500
105,110.13,110.13,110.04,110.06,3046
106,110.31,110.33,110.155,110.155,12694
107,110.3675,110.4,110.34,110.34,1000
108,110.32,110.35,110.3,110.33,8000
110,110.3,110.35,110.3,110.35,6646
111,110.33,110.33,110.3,110.3,4000
112,110.32,110.34,110.32,110.34,456
113,110.31,110.33,110.3,110.31,4653
114,110.26,110.3,110.19,110.3,15500
115,110.22,110.26,110.22,110.26,500
116,110.28,110.31,110.26,110.26,2900
117,110.315,110.35,110.315,110.35,350
118,110.25,110.305,110.25,110.28,1808
119,110.23,110.25,110.19,110.23,5600
120,110.21,110.25,110.21,110.21,500
121,110.26,110.3,110.25,110.25,2400
122,110.3,110.3,110.3,110.3,100
125,110.21,110.26,110.21,110.24,5450
126,110.21,110.21,110.21,110.21,1100
127,110.23,110.27,110.225,110.24,5400
128,110.26,110.26,110.2,110.243,8322
129,110.28,110.28,110.23,110.23,6350
130,110.28,110.28,110.28,110.28,100
131,110.34,110.34,110.28,110.28,4952
132,110.37,110.37,110.3335,110.3335,649
133,110.34,110.38,110.33,110.38,620
134,110.31,110.38,110.31,110.38,700
135,110.4,110.4,110.33,110.33,1298
136,110.43,110.43,110.3791,110.39,1854
137,110.4,110.43,110.4,110.43,200
138,110.3,110.39,110.3,110.39,2000
139,110.28,110.306,110.28,110.306,214
140,110.21,110.27,110.21,110.27,2100
141,110.245,110.26,110.23,110.24,3900
142,110.28,110.3,110.24,110.24,4900
143,110.29,110.3,110.26,110.28,2800
144,110.24,110.3,110.24,110.28,3277
145,110.26,110.26,110.21,110.23,13100
146,110.3075,110.31,110.28,110.28,1500
147,110.31,110.345,110.29,110.32,5200
148,110.3,110.3,110.28,110.3,800
149,110.29,110.3,110.27,110.28,9070
150,110.25,110.29,110.25,110.29,1000
151,110.19,110.24,110.19,110.24,2900
152,110.16,110.18,110.16,110.17,3920
153,110.13,110.15,110.12,110.12,4798
154,110.09,110.12,110.09,110.12,400
155,110.12,110.135,110.09,110.09,11606
156,110.1,110.14,110.09,110.12,14659
157,110.09,110.12,110.09,110.12,4600
158,110.09,110.09,110.09,110.09,200
159,110.04,110.09,110.04,110.09,1100
160,110.02,110.04,110.02,110.04,500
161,110.03,110.06,110.02,110.04,1577
162,110.1,110.1,110.06,110.06,4405
163,110.1,110.1,110.05,110.09,4691
164,110.1,110.12,110.1,110.11,5500
165,110.11,110.13,110.11,110.13,500
166,110.17,110.17,110.1,110.1,5900
167,110.15,110.2,110.15,110.18,1400
168,110.1,110.135,110.1,110.12,1100
169,110.14,110.14,110.14,110.14,400
170,110.17,110.17,110.13,110.132,328
171,110.15,110.24,110.15,110.17,2400
172,110.13,110.1881,110.13,110.1671,900
173,110.14,110.19,110.11,110.13,4000
174,110.16,110.16,110.16,110.16,100
177,110.115,110.13,110.11,110.13,1300
178,110.1,110.14,110.1,110.12,3930
179,110.115,110.13,110.1,110.1,21300
180,110.1,110.13,110.1,110.13,9700
181,110.11,110.11,110.1,110.1,3200
182,110.1,110.11,110.1,110.1,3500
183,110.11,110.11,110.1,110.1,3394
184,110.12,110.14,110.11,110.12,3400
185,110.1,110.1,110.1,110.1,2825
186,110.09,110.11,110.07,110.1,1300
187,110.105,110.11,110.09,110.09,21777
188,110.08,110.105,110.08,110.1,2900
189,110.0857,110.0857,110.0857,110.0857,254
190,110.11,110.11,110.08,110.08,7900
191,110.11,110.11,110.1,110.11,2900
192,110.105,110.105,110.1,110.1,14100
193,110.1,110.11,110.1,110.1,4100
194,110.11,110.11,110.09,110.1,5699
195,110.11,110.11,110.1,110.105,4421
196,110.1038,110.105,110.1,110.1,4050
197,110.035,110.11,110.02,110.11,10844
199,110.06,110.06,110.02,110.02,5049
200,110.05,110.06,110.05,110.06,6521
201,110.05,110.06,110.05,110.05,8800
202,110.05,110.05,110.05,110.05,1400
203,110.08,110.08,110.055,110.055,1300
204,110.11,110.11,110.07,110.07,4697
205,110.1398,110.1398,110.12,110.12,463
206,110.13,110.15,110.13,110.135,2100
207,110.14,110.18,110.14,110.14,800
208,110.1,110.14,110.1,110.14,800
209,110.06,110.12,110.06,110.1,3900
210,110.06,110.06,110.05,110.05,1902
212,110.11,110.11,110.08,110.09,5605
214,110.1,110.11,110.1,110.11,1300
215,110.11,110.11,110.1,110.1,2000
216,110.11,110.11,110.1,110.11,2700
217,110.11,110.13,110.11,110.12,1700
218,110.07,110.115,110.07,110.1,2700
219,110.08,110.08,110.065,110.07,400
220,110.08,110.08,110.05,110.06,3100
221,110.1,110.1,110.1,110.1,100
223,110.07,110.08,110.06,110.07,8054
224,110.08,110.08,110.06,110.06,5200
225,110.05,110.085,110.05,110.085,4200
226,110.06,110.06,110.04,110.0599,8700
227,110.08,110.08,110.05,110.06,5800
228,110.09,110.09,110.08,110.09,2300
229,110.06,110.08,110.06,110.08,2900
230,110.085,110.1,110.075,110.0775,1900
231,110.07,110.085,110.07,110.07,600
232,110.08,110.09,110.06,110.06,1200
233,110.06,110.075,110.06,110.06,2000
234,110.07,110.07,110.07,110.07,200
235,110.07,110.1,110.06,110.075,5700
236,110.07,110.07,110.06,110.06,1362
237,110.08,110.08,110.0775,110.08,1500
238,110.07,110.07,110.07,110.07,300
239,110.06,110.06,110.06,110.06,800
240,110.07,110.07,110.06,110.06,1300
241,110.06,110.07,110.06,110.065,8560
242,110.05,110.07,110.05,110.06,3400
243,110.07,110.07,110.055,110.06,2700
244,110.1,110.1,110.08,110.08,1400
245,110.08,110.1,110.06,110.1,4827
246,110.07,110.08,110.06,110.08,2400
247,110.06,110.06,110.06,110.06,100
248,110.06,110.06,110.05,110.06,900
249,110.01,110.06,110,110.06,12402
250,110.02,110.0342,110.02,110.0342,2510
251,110.02,110.03,110.02,110.02,3300
252,110.05,110.05,110.02,110.02,19731
253,110.045,110.06,110.04,110.04,13522
254,110.02,110.05,110.02,110.04,30100
255,109.9828,110.01,109.98,110.01,1396
256,109.85,109.96,109.85,109.96,2600
257,109.91,109.91,109.87,109.87,6900
258,109.855,109.92,109.84,109.905,38700
259,109.85,109.865,109.84,109.86,6339
260,109.91,109.91,109.82,109.85,57668
261,109.909,109.909,109.909,109.909,1723
262,109.885,109.92,109.87,109.9,3300
263,109.88,109.89,109.87,109.885,4909
264,109.88,109.89,109.84,109.87,2950
265,109.835,109.87,109.83,109.87,24198
266,109.81,109.85,109.8,109.835,34325
267,109.78,109.79,109.77,109.77,300
268,109.76,109.77,109.76,109.77,5000
269,109.7,109.76,109.69,109.76,6429
270,109.7,109.705,109.7,109.7,4500
271,109.74,109.74,109.69,109.7,8470
272,109.87,109.88,109.75,109.75,3700
273,110.01,110.02,109.88,109.88,3528
274,109.98,110.01,109.98,110.01,400
275,109.89,109.97,109.89,109.97,1700
276,109.8,109.87,109.8,109.87,900
277,109.9,109.9,109.8,109.8,2600
278,109.89,109.93,109.875,109.875,1400
279,109.88,109.915,109.84,109.88,1000
280,109.92,109.92,109.845,109.85,900
281,109.94,109.95,109.92,109.92,800
282,109.96,109.96,109.9,109.92,1100
283,109.9201,109.945,109.9201,109.945,500
284,109.905,109.92,109.9,109.92,2550
285,109.9,109.9,109.9,109.9,800
286,109.95,109.95,109.9,109.9,3000
287,109.96,109.97,109.94,109.94,1200
288,109.96,109.96,109.95,109.95,1000
289,109.895,109.95,109.89,109.95,3820
290,109.92,109.94,109.8901,109.8901,5430
291,110,110,109.93,109.93,1450
292,109.94,109.97,109.94,109.97,2450
293,109.9899,109.9899,109.95,109.95,1733
294,109.93,109.975,109.93,109.96,900
295,109.91,109.92,109.91,109.92,300
296,109.95,109.99,109.91,109.91,19845
297,109.9001,109.95,109.845,109.95,7790
298,109.895,109.94,109.89,109.92,10700
299,109.95,109.965,109.88,109.88,4200
300,109.9301,109.96,109.9301,109.95,3100
301,109.95,109.98,109.94,109.95,4167
302,109.9359,109.96,109.9359,109.96,4636
303,109.91,109.93,109.91,109.93,1262
304,109.91,109.91,109.91,109.91,1000
305,109.91,109.97,109.89,109.89,7330
306,109.94,109.94,109.94,109.94,100
307,109.95,109.96,109.94,109.94,2500
308,109.985,109.99,109.95,109.95,2687
309,109.975,109.99,109.96,109.98,2255
310,109.91,109.96,109.91,109.96,900
311,109.98,110,109.93,109.93,5400
312,109.93,109.99,109.93,109.99,1112
313,109.97,109.98,109.95,109.95,10451
314,110.01,110.01,109.97,109.97,600
315,110.05,110.05,110.03,110.03,804
316,110.08,110.08,110.07,110.07,300
317,110.04,110.11,110.03,110.09,2800
318,109.995,110.0223,109.99,110.01,1391
319,110.03,110.03,109.98,109.995,2400
320,110.03,110.05,110,110,776
322,110.03,110.07,110.03,110.06,800
323,110.03,110.045,110.03,110.03,700
324,110.0371,110.0499,110.0371,110.0499,238
325,110.06,110.06,110,110,4200
326,110.04,110.0595,110.04,110.0595,1100
327,110.07,110.07,110.04,110.04,1100
328,110.07,110.08,110.07,110.08,703
329,110.07,110.07,110.07,110.07,200
330,110.055,110.055,110.05,110.05,300
331,110.02,110.03,110.02,110.03,300
332,110.03,110.03,110.02,110.03,800
333,110.05,110.06,110.01,110.02,6125
334,110.035,110.04,110.03,110.04,650
335,110.05,110.1,110.03,110.035,5850
337,110.09,110.09,110.03,110.03,7268
338,110.08,110.08,110.08,110.08,100
339,110.04,110.08,110.03,110.05,1117
340,110.07,110.075,110.05,110.05,2600
341,110.06,110.06,110.06,110.06,100
342,110.06,110.065,110.04,110.065,3612
343,110.09,110.09,110.07,110.07,1759
344,110.12,110.12,110.09,110.09,1800
345,110.12,110.13,110.12,110.13,600
346,110.1,110.11,110.1,110.11,700
347,110.115,110.125,110.1,110.1,8019
348,110.06,110.11,110.06,110.11,1100
349,110.05,110.06,110.04,110.06,2000
350,110.09,110.095,110.06,110.07,2748
351,110.05,110.08,110.04,110.08,2900
352,110.075,110.075,110.04,110.05,4341
353,110.07,110.07,110.07,110.07,100
354,110.09,110.09,110.07,110.07,2498
355,110.07,110.07,110.04,110.07,6800
356,110.05,110.05,110.04,110.05,1012
357,110.05,110.06,110.04,110.04,6156
358,110.075,110.075,110.04,110.05,9755
359,110.06,110.06,110.03,110.06,14802
360,110.0475,110.07,110.04,110.06,5641
361,110.07,110.07,110.04,110.05,2826
362,110.0558,110.07,110.045,110.07,2638
363,110.11,110.11,110.06,110.06,3892
364,110.05,110.1125,110.04,110.11,8600
365,110.08,110.08,110.05,110.06,5292
366,110.1,110.1,110.07,110.08,2605
367,110.04,110.085,110.04,110.085,5817
368,110.05,110.05,110.04,110.04,3200
369,110.04,110.05,110.04,110.05,2105
370,110.04,110.045,110.04,110.04,3846
371,110.05,110.05,110.04,110.04,7000
372,110.04,110.045,110.04,110.045,3827
373,110.05,110.05,110.04,110.04,4399
374,110.04,110.05,110.02,110.04,10795
375,110.04,110.05,110.04,110.045,25911
376,110.06,110.07,110.04,110.04,10138
377,110.05,110.12,110.04,110.06,12474
378,110.065,110.08,110.05,110.06,5220
379,110.0769,110.0769,110.05,110.05,10403
380,110.05,110.11,110.04,110.08,11109
381,110.05,110.06,110.04,110.05,6833
382,110.08,110.08,110.05,110.05,9505
383,110.1,110.12,110.07,110.07,5410
384,110.09,110.115,110.08,110.115,5415
385,110.08,110.1,110.04,110.08,11600
386,110.13,110.15,110.08,110.08,6835
387,110.1,110.14,110.1,110.13,16212
388,110.075,110.17,110.07,110.1,33277
389,110.14,110.18,110.09,110.09,26191
