PPG,PPG Industries,Materials,8,Specialty Chemicals,28683338061,1225469
a1499434200,110.35,110.35,110.35,110.35,7382
3,110.18,110.29,110.175,110.29,400
4,110.21,110.29,110.15,110.15,4500
5,110.02,110.21,110.02,110.21,1250
6,110.0347,110.0347,110.0347,110.0347,300
8,110.03,110.03,110.03,110.03,100
9,109.96,110.11,109.96,110.07,1300
10,110.1,110.12,110.05,110.05,1105
11,110.1,110.1,110.07,110.08,700
12,110.09,110.17,110.09,110.13,904
13,110.07,110.07,110.07,110.07,100
14,110.05,110.07,110.05,110.07,500
15,109.97,109.97,109.95,109.95,200
16,109.968,110,109.968,109.98,700
17,109.96,109.96,109.96,109.96,200
18,110,110.01,109.98,110.01,800
19,109.98,109.99,109.97,109.99,765
20,110.08,110.08,109.945,109.9828,1600
21,110.19,110.19,110.1,110.11,1000
22,110.16,110.16,110.16,110.16,100
23,110.13,110.1725,110.13,110.15,900
24,110.15,110.17,110.075,110.075,1874
25,110.1075,110.1075,110.08,110.08,200
27,110.09,110.12,110.09,110.09,900
28,110.07,110.07,110.07,110.07,100
29,110.22,110.22,110.11,110.11,1600
30,110.21,110.23,110.19,110.2,1300
31,110.22,110.22,110.18,110.21,1002
32,110.17,110.185,110.17,110.185,200
33,110.13,110.16,110.13,110.16,574
34,110.08,110.12,110.07,110.12,1013
35,110.08,110.11,110.07,110.07,900
36,110.08,110.0836,110.08,110.08,400
37,110.05,110.05,110.05,110.05,100
38,110.04,110.06,110.03,110.06,900
39,110.06,110.06,110.0301,110.05,1600
40,110.04,110.04,110.04,110.04,200
41,110.07,110.07,110.05,110.06,2110
42,110.11,110.12,110.1001,110.11,900
43,110.11,110.16,110.1,110.13,5800
44,110.1,110.11,110.1,110.11,500
45,110.13,110.13,110.08,110.12,2424
47,110.13,110.17,110.12,110.13,2400
48,110.11,110.14,110.11,110.14,666
49,110.11,110.12,110.09,110.09,1036
50,110.22,110.22,110.18,110.18,500
51,110.23,110.25,110.18,110.22,1000
52,110.29,110.3,110.25,110.26,2255
53,110.36,110.36,110.29,110.29,1300
54,110.42,110.42,110.31,110.37,2105
55,110.46,110.5,110.395,110.46,2751
56,110.48,110.51,110.48,110.48,600
57,110.54,110.54,110.51,110.53,700
58,110.58,110.6,110.53,110.56,2300
59,110.6,110.63,110.6,110.6,700
60,110.61,110.69,110.61,110.6503,1450
61,110.635,110.635,110.635,110.635,100
62,110.645,110.645,110.64,110.64,500
63,110.6,110.63,110.6,110.63,803
64,110.59,110.63,110.59,110.6285,808
65,110.55,110.63,110.55,110.59,1389
66,110.55,110.55,110.55,110.55,115
67,110.52,110.56,110.52,110.55,600
68,110.4859,110.51,110.4859,110.51,485
69,110.51,110.53,110.49,110.49,900
71,110.55,110.585,110.55,110.55,2250
73,110.58,110.6,110.56,110.58,1700
74,110.59,110.61,110.58,110.58,1900
75,110.63,110.63,110.63,110.63,100
76,110.55,110.59,110.55,110.59,1553
77,110.59,110.61,110.57,110.57,1043
78,110.635,110.635,110.61,110.61,2500
79,110.61,110.62,110.61,110.62,300
81,110.57,110.59,110.55,110.59,600
82,110.56,110.58,110.56,110.58,200
83,110.58,110.58,110.58,110.58,500
84,110.52,110.5602,110.52,110.5602,1444
85,110.515,110.52,110.515,110.52,200
86,110.53,110.53,110.53,110.53,300
87,110.55,110.55,110.52,110.54,1000
88,110.53,110.53,110.53,110.53,200
89,110.51,110.51,110.49,110.49,500
91,110.53,110.53,110.52,110.53,600
92,110.57,110.58,110.56,110.56,1183
93,110.6,110.61,110.575,110.575,700
94,110.59,110.62,110.59,110.59,1900
95,110.6,110.61,110.6,110.61,200
96,110.6001,110.61,110.6001,110.61,300
97,110.6125,110.62,110.6,110.6,1000
99,110.62,110.63,110.61,110.61,1100
100,110.61,110.6231,110.5904,110.6231,1399
101,110.66,110.66,110.61,110.61,2200
102,110.67,110.72,110.67,110.67,1887
103,110.7,110.71,110.69,110.69,1050
104,110.705,110.72,110.7,110.71,500
105,110.73,110.73,110.69,110.71,697
106,110.68,110.7,110.68,110.7,600
108,110.66,110.7,110.66,110.7,800
111,110.67,110.69,110.6673,110.6673,640
112,110.68,110.69,110.68,110.69,704
114,110.71,110.71,110.68,110.685,800
115,110.71,110.74,110.71,110.74,1262
116,110.7,110.7,110.7,110.7,121
117,110.73,110.73,110.7,110.7,200
118,110.7,110.7125,110.67,110.7,1200
119,110.71,110.71,110.7,110.7,200
120,110.69,110.735,110.69,110.735,500
121,110.725,110.76,110.71,110.71,800
122,110.78,110.78,110.78,110.78,100
123,110.82,110.82,110.81,110.81,200
124,110.81,110.82,110.81,110.82,200
125,110.88,110.88,110.88,110.88,100
126,110.97,110.98,110.9,110.9,900
129,110.87,110.91,110.87,110.91,500
132,110.95,110.95,110.92,110.92,800
133,110.97,110.98,110.93,110.93,400
134,111,111,111,111,222
135,110.91,110.99,110.905,110.99,1475
137,110.96,110.96,110.93,110.96,500
138,110.9,110.9,110.9,110.9,300
141,110.95,110.95,110.91,110.91,400
142,110.9148,110.95,110.91,110.95,949
143,110.9,110.9,110.9,110.9,192
144,110.97,110.97,110.97,110.97,200
145,110.98,110.98,110.98,110.98,100
146,110.99,110.99,110.99,110.99,100
147,110.97,111,110.97,110.975,300
148,110.97,110.97,110.97,110.97,100
149,110.89,110.94,110.89,110.94,700
151,110.93,110.93,110.93,110.93,530
153,110.91,110.93,110.89,110.93,1008
154,110.905,110.94,110.9,110.94,556
155,110.97,110.97,110.91,110.91,800
156,111,111,111,111,100
157,110.95,110.95,110.94,110.94,200
158,110.94,110.9751,110.94,110.9751,789
159,110.87,110.98,110.87,110.98,900
160,110.88,110.9,110.87,110.87,992
161,110.92,110.92,110.92,110.92,300
162,110.96,110.96,110.92,110.93,1300
163,110.91,110.96,110.91,110.96,600
164,110.94,110.95,110.94,110.95,200
165,111.01,111.01,110.97,110.97,873
166,110.96,111.01,110.96,111.01,700
168,111,111,111,111,100
170,110.98,110.99,110.95,110.99,1000
171,111.02,111.02,111.02,111.02,400
172,110.905,111.05,110.89,111.05,4499
173,110.96,110.96,110.96,110.96,100
174,110.98,110.99,110.97,110.98,700
175,110.98,110.98,110.98,110.98,100
176,110.9601,110.9601,110.96,110.96,200
177,110.964,111.01,110.96,110.985,790
178,110.95,110.95,110.95,110.95,200
180,110.94,110.98,110.94,110.95,1000
181,110.94,110.94,110.94,110.94,100
182,110.945,110.9619,110.92,110.9619,500
183,110.92,110.93,110.92,110.93,600
184,110.96,110.96,110.96,110.96,100
185,110.91,110.91,110.91,110.91,100
186,110.935,110.96,110.93,110.93,1900
187,110.91,110.96,110.91,110.96,1800
188,110.92,110.92,110.92,110.92,300
189,110.96,110.96,110.96,110.96,200
190,110.86,110.911,110.86,110.911,1741
191,110.895,110.9,110.88,110.88,701
192,110.83,110.84,110.83,110.84,300
193,110.83,110.83,110.83,110.83,100
194,110.91,110.91,110.89,110.89,200
195,110.93,110.95,110.93,110.95,400
196,110.93,110.93,110.92,110.92,400
197,110.94,110.94,110.94,110.94,100
198,110.94,110.94,110.93,110.93,415
199,110.9458,110.9458,110.9458,110.9458,135
200,110.95,110.95,110.95,110.95,200
201,110.95,110.96,110.95,110.96,301
203,110.98,110.98,110.96,110.96,510
204,111.01,111.01,111.01,111.01,400
206,111.003,111.003,111.003,111.003,700
207,110.99,111.02,110.99,111.02,400
209,110.99,110.99,110.99,110.99,100
210,111.01,111.02,111,111.02,600
211,111.02,111.02,111.02,111.02,100
212,111.025,111.03,111.02,111.03,440
213,111.05,111.05,111.025,111.025,1000
216,111.05,111.05,111.025,111.025,400
217,111.03,111.03,111.03,111.03,1205
218,111.03,111.03,111.03,111.03,600
219,111.03,111.04,111.03,111.03,1100
220,111.03,111.03,111.03,111.03,800
221,111.01,111.05,111.01,111.03,4160
222,111.025,111.025,111.025,111.025,100
223,111.02,111.03,111.02,111.02,3590
224,111.01,111.03,111.01,111.03,800
225,111.03,111.03,111.015,111.015,2454
226,111.035,111.05,111.03,111.03,6895
227,111.045,111.045,111.04,111.04,500
228,111.045,111.05,111.04,111.045,4379
229,111.03,111.045,111.02,111.0411,3900
230,111.04,111.045,111.035,111.035,2657
231,111.045,111.0475,111.045,111.045,400
232,111.03,111.045,111.03,111.045,2049
233,111.035,111.035,111.03,111.03,861
234,111.045,111.05,111.04,111.04,1300
235,111.04,111.045,111.04,111.045,200
236,111.03,111.045,111.03,111.045,2672
237,111.02,111.02,111.02,111.02,100
238,111.03,111.03,111.01,111.01,200
239,111.03,111.04,111.02,111.04,300
240,111.04,111.06,111.04,111.04,2694
241,111.0419,111.06,111.0419,111.05,1466
242,111.05,111.05,111.05,111.05,300
243,111.03,111.045,110.97,111.045,5183
244,111.03,111.04,111.03,111.03,988
245,111.035,111.04,111.03,111.03,1200
246,111.03,111.05,111.03,111.045,1719
247,111.03,111.04,111.03,111.03,500
248,111.022,111.03,111.021,111.03,750
249,111.04,111.04,111.03,111.03,1000
250,111.0425,111.0425,111.04,111.04,700
251,111.015,111.07,110.99,111.04,8265
253,110.995,110.995,110.995,110.995,100
254,111.04,111.04,111.03,111.035,500
255,111.03,111.03,111.03,111.03,100
256,111.04,111.05,111.04,111.045,1024
257,111.04,111.05,111.04,111.04,300
258,111.037,111.04,111.037,111.04,243
259,111.04,111.04,111.035,111.035,500
260,111.05,111.05,111.035,111.035,2713
261,111.03,111.045,111.03,111.04,1500
262,111.05,111.0545,111.025,111.025,2541
263,111.05,111.05,111.039,111.039,200
264,111.06,111.07,111.045,111.045,1578
265,111.07,111.07,111.04,111.0625,1334
266,111.08,111.08,111.05,111.065,2477
267,111.09,111.09,111.04,111.07,4640
268,111.06,111.08,111.045,111.05,4500
269,111.08,111.09,111.04,111.04,3200
270,111.1,111.13,111.085,111.085,3403
271,111.09,111.115,111.07,111.11,5603
272,111.09,111.1,111.085,111.085,1100
273,111.08,111.1,111.07,111.09,1700
274,111.095,111.095,111.08,111.08,1100
275,111.06,111.08,111.06,111.08,700
276,111.083,111.083,111.055,111.055,425
277,111.05,111.08,111.05,111.08,687
280,111.08,111.08,111.05,111.05,600
281,111.08,111.08,111.08,111.08,200
282,111.06,111.08,111.06,111.08,1835
283,111.03,111.05,111.03,111.05,400
285,111.0187,111.04,111.0187,111.04,300
286,110.99,111.03,110.99,110.99,500
287,111.029,111.029,111.015,111.015,498
288,110.97,111.03,110.97,111.03,1600
289,110.96,110.96,110.96,110.96,100
290,110.905,110.95,110.905,110.95,750
291,110.92,110.92,110.9,110.91,500
296,110.9,110.91,110.89,110.9,2500
297,110.91,110.92,110.91,110.91,1500
298,110.9,110.9,110.9,110.9,100
301,110.91,110.91,110.9,110.9,500
302,110.96,110.96,110.92,110.92,1900
303,110.94,110.96,110.94,110.95,1309
304,110.905,110.93,110.9025,110.93,400
306,110.95,110.95,110.93,110.93,547
308,110.94,110.94,110.93,110.94,1300
309,110.91,110.92,110.91,110.92,200
310,110.8971,110.8971,110.8971,110.8971,275
311,110.8901,110.905,110.8901,110.905,226
312,110.94,110.94,110.91,110.91,1000
313,110.93,110.945,110.93,110.945,500
314,110.95,110.95,110.95,110.95,200
315,110.93,110.94,110.93,110.93,700
317,110.95,110.965,110.94,110.94,3700
319,110.9624,110.9624,110.9624,110.9624,100
320,110.98,110.98,110.9575,110.9575,766
321,111,111,110.98,110.98,2000
322,111.03,111.03,111.01,111.01,600
323,111.04,111.06,111.04,111.06,1100
324,111.036,111.036,111.035,111.035,200
325,111.035,111.04,111.035,111.04,1700
326,111.035,111.05,111.035,111.035,900
327,111.02,111.04,111.01,111.035,2240
328,111,111,110.97,110.99,1306
330,111.01,111.01,111.01,111.01,300
331,111.0225,111.03,111.0225,111.03,1265
332,111.025,111.03,111.025,111.03,2700
333,111.0211,111.03,111.0211,111.0225,324
334,111,111.03,110.99,111.03,2250
335,110.96,110.9867,110.96,110.9867,420
336,110.99,110.99,110.96,110.96,900
337,111.01,111.01,111,111,800
338,111.02,111.02,111.01,111.01,300
339,111.03,111.03,111.03,111.03,300
340,111.05,111.05,111.04,111.04,500
341,111.03,111.05,111.02,111.05,2800
342,111.025,111.03,111.01,111.02,1300
343,111.0225,111.025,111.0225,111.025,404
344,111.025,111.03,111.025,111.03,504
345,110.99,111.03,110.99,111.025,6798
346,110.975,110.975,110.975,110.975,100
348,110.96,110.975,110.96,110.975,200
349,110.995,110.995,110.9675,110.9675,1162
350,111.02,111.03,111,111,40314
351,111.02,111.02,111.01,111.01,400
352,111.0275,111.03,111.02,111.03,4219
353,111.01,111.025,111.01,111.025,2183
354,111.015,111.02,111.005,111.01,1200
355,111.03,111.03,111.02,111.02,300
356,111.02,111.04,111.02,111.04,1223
357,111.02,111.02,111.02,111.02,300
358,111.07,111.07,111.02,111.02,2861
359,111.06,111.07,111.05,111.07,1101
360,111.055,111.06,111.05,111.06,1600
361,111.04,111.055,111.04,111.04,900
362,111.04,111.05,111.04,111.05,200
363,111.045,111.045,111.045,111.045,708
364,111.05,111.05,111.045,111.05,7229
365,111.045,111.045,111.045,111.045,100
366,111.05,111.06,111.05,111.05,3300
367,111.05,111.05,111.05,111.05,300
368,111,111.05,111,111.05,2147
369,111.02,111.02,111.01,111.01,1100
370,111.04,111.04,111.03,111.03,923
371,111.055,111.06,111.05,111.05,1200
372,111.055,111.06,111.055,111.055,3579
373,111.04,111.06,111.04,111.06,4084
374,111.02,111.03,111.02,111.03,500
375,111.07,111.1,111.04,111.04,19045
376,111.04,111.065,111.04,111.065,4101
377,111.05,111.05,111.04,111.04,200
378,111.04,111.05,111.04,111.045,1100
379,111.04,111.05,111.04,111.045,600
380,111.03,111.04,110.99,111.04,8052
381,111.055,111.06,111.04,111.04,4400
382,111.0499,111.05,111.03,111.05,4200
383,111.055,111.055,111.05,111.05,1600
384,111.0325,111.055,111.0325,111.055,3000
385,111.05,111.05,111.03,111.03,3401
386,111.06,111.06,111.05,111.05,7495
387,111.055,111.06,111.05,111.055,3725
388,111.025,111.055,111.02,111.055,5243
389,110.98,111.025,110.96,111.025,12186
390,111,111.01,110.94,110.98,8276
