EOG,EOG Resources,Energy,3,Oil & Gas Exploration & Production,48644225194,3314053
a1503408600,83.91,83.91,83.91,83.91,18592
1,83.98,83.995,83.87,83.9152,831
2,84.22,84.22,83.945,83.945,4000
3,84.1,84.22,84.07,84.22,1500
4,84.14,84.14,84.14,84.14,100
5,84.11,84.2181,84.11,84.14,1682
6,84,84.12,84,84.04,1673
7,84.01,84.03,83.94,84,2547
8,84.02,84.07,84,84,1484
9,84.09,84.2199,84.0744,84.08,2464
10,84.28,84.28,84.16,84.16,700
11,84.16,84.2,84.16,84.2,200
12,84.05,84.1,84.015,84.1,2173
13,84.01,84.09,84.01,84.07,1500
14,83.98,84.01,83.98,83.98,500
15,83.94,83.99,83.94,83.9472,2924
16,83.94,84.01,83.89,83.96,10001
17,83.87,83.95,83.87,83.9231,1750
18,83.93,83.939,83.895,83.895,1800
19,83.99,83.99,83.93,83.93,7184
20,83.9785,84.02,83.951,83.99,2089
21,83.93,84.03,83.93,84,2900
22,83.91,83.97,83.91,83.94,2300
23,84.105,84.12,83.93,83.93,2053
24,84.21,84.23,84.11,84.11,4400
25,84.21,84.23,84.14,84.23,2300
26,84.2024,84.2024,84.18,84.194,300
27,84.135,84.21,84.13,84.18,2800
28,84.11,84.12,84.09,84.12,1708
29,84.24,84.24,84.14,84.14,1700
30,84.275,84.3,84.25,84.25,4550
31,84.24,84.31,84.23,84.2825,5500
32,84.33,84.33,84.23,84.26,2500
33,84.27,84.31,84.21,84.31,4633
34,84.17,84.26,84.1401,84.26,4650
35,84.16,84.2,84.12,84.19,3000
36,84.155,84.2,84.14,84.19,3603
37,84.185,84.19,84.15,84.16,4962
38,84.17,84.2,84.15,84.2,2600
39,84.21,84.22,84.18,84.18,745
40,84.25,84.26,84.24,84.24,900
41,84.2856,84.2856,84.26,84.275,750
42,84.275,84.29,84.25,84.275,3020
43,84.29,84.29,84.28,84.28,500
44,84.2,84.29,84.2,84.29,1500
45,84.2,84.2,84.17,84.17,300
46,84.2,84.2,84.18,84.19,1278
47,84.21,84.22,84.21,84.21,800
48,84.17,84.2,84.17,84.18,1000
49,84.23,84.23,84.16,84.16,1810
50,84.17,84.2,84.17,84.19,1421
51,84.2176,84.2176,84.17,84.19,2348
52,84.245,84.25,84.19,84.21,3252
53,84.25,84.25,84.2,84.22,2600
54,84.17,84.245,84.14,84.22,5523
55,84.2,84.22,84.15,84.15,3193
56,84.2,84.235,84.19,84.21,8037
57,84.2,84.205,84.18,84.2,700
58,84.19,84.22,84.19,84.22,800
59,84.155,84.21,84.14,84.2,3375
60,84.195,84.2,84.14,84.16,6700
61,84.14,84.21,84.13,84.2,5788
62,84.17,84.18,84.13,84.13,3700
63,84.175,84.175,84.12,84.16,3804
64,84.15,84.18,84.15,84.175,1900
65,84.14,84.16,84.14,84.15,2200
66,84.19,84.21,84.15,84.15,5100
67,84.15,84.21,84.14,84.19,4710
68,84.13,84.17,84.13,84.16,29100
69,84.14,84.15,84.11,84.13,1900
70,84.18,84.18,84.12,84.145,15160
71,84.12,84.18,84.1,84.17,5700
72,84.13,84.15,84.12,84.12,3655
73,84.11,84.15,84.11,84.12,2100
74,84.1,84.14,84.1,84.11,3744
75,84.15,84.15,84.1,84.11,7623
76,84.2,84.21,84.15,84.16,13403
77,84.21,84.27,84.21,84.21,11821
78,84.21,84.24,84.2,84.21,3174
79,84.21,84.22,84.21,84.22,300
80,84.22,84.23,84.2,84.21,14605
81,84.2,84.21,84.2,84.21,500
82,84.21,84.22,84.19,84.2,2240
83,84.215,84.24,84.21,84.23,2125
84,84.2,84.205,84.18,84.2,7700
85,84.2448,84.26,84.21,84.21,3800
86,84.23,84.23,84.23,84.23,300
87,84.235,84.235,84.215,84.215,700
88,84.2,84.25,84.2,84.23,2600
89,84.195,84.23,84.17,84.23,6794
90,84.2,84.23,84.19,84.2,4606
91,84.2075,84.22,84.18,84.2,12627
92,84.12,84.22,84.12,84.22,17743
93,84.09,84.11,84.05,84.08,10566
94,84.13,84.15,84.085,84.09,25500
95,84.035,84.13,84.035,84.13,17650
96,84.01,84.035,84.01,84.02,1470
97,83.94,83.9897,83.94,83.98,4155
98,83.8883,83.92,83.88,83.92,4901
99,83.89,83.89,83.85,83.88,7677
100,83.9,83.92,83.88,83.89,3150
101,83.92,83.93,83.92,83.92,1400
102,84,84,83.94,83.94,900
103,84.02,84.02,83.975,84.02,11380
104,84.06,84.075,84.01,84.01,4011
105,84.12,84.14,84.0799,84.0799,2527
106,84.13,84.13,84.08,84.1,830
107,84.1492,84.16,84.09,84.11,1484
108,84.1406,84.18,84.1406,84.15,2305
109,84.1,84.17,84.0875,84.17,6400
110,84.0401,84.1,84.0401,84.09,2390
111,84.04,84.07,84.04,84.07,322
112,84.02,84.05,84.02,84.05,500
113,83.96,84.0159,83.95,84,13940
114,83.95,83.96,83.9475,83.955,1400
115,83.99,84.006,83.94,83.94,6094
116,84.02,84.02,83.99,84,8606
117,84.02,84.02,83.99,84,1599
118,83.95,84,83.94,84,1500
119,84.04,84.04,83.94,83.94,4400
120,84,84.01,83.995,83.995,3400
121,83.99,84.02,83.97,84,6400
122,84.04,84.04,84,84,3097
123,84.025,84.03,84,84,1788
124,84.025,84.025,84.02,84.02,200
125,84.015,84.015,84.01,84.01,794
126,84.04,84.04,84,84,3400
127,84.05,84.0725,84.03,84.03,6400
128,84.03,84.06,84.03,84.06,1500
130,84.01,84.02,83.981,83.981,970
131,84.05,84.06,84.025,84.05,6316
132,84.12,84.12,84.05,84.05,4050
133,84.09,84.12,84.08,84.12,1729
134,84.09,84.1,84.04,84.07,3599
135,84.09,84.09,84.09,84.09,200
136,84.08,84.0986,84.08,84.0986,1160
137,84.1,84.12,84.09,84.09,6059
138,84.09,84.1,84.08,84.1,1707
139,84.1,84.12,84.09,84.09,2000
140,84.07,84.1,84.06,84.1,3400
141,84.05,84.055,84.05,84.055,400
142,84.08,84.08,84.04,84.04,4450
143,84.085,84.1,84.0823,84.0823,501
144,84.06,84.07,84.05,84.07,1540
145,84.055,84.06,84.04,84.05,10629
146,84.08,84.08,84.03,84.05,3052
147,84.12,84.13,84.1,84.1,4614
148,84.0844,84.12,84.0844,84.12,1005
149,84.1,84.1,84.1,84.1,400
150,84.1,84.13,84.09,84.09,4300
151,84.14,84.16,84.1,84.1,2063
152,84.24,84.24,84.16,84.16,2100
153,84.19,84.2367,84.19,84.2367,1450
154,84.19,84.215,84.19,84.2,700
155,84.16,84.17,84.16,84.17,1000
156,84.18,84.18,84.18,84.18,100
157,84.2,84.2,84.175,84.19,1750
158,84.2,84.22,84.164,84.2,2400
159,84.2,84.2,84.17,84.2,1688
160,84.2,84.23,84.16,84.21,8300
161,84.18,84.24,84.16,84.2,5350
162,84.21,84.21,84.18,84.18,1200
163,84.23,84.26,84.21,84.21,4163
164,84.2,84.24,84.2,84.22,1851
165,84.23,84.23,84.21,84.21,740
166,84.27,84.27,84.22,84.23,1000
167,84.26,84.26,84.26,84.26,100
168,84.28,84.28,84.242,84.25,2879
169,84.21,84.25,84.21,84.25,3554
170,84.195,84.22,84.18,84.22,4700
171,84.171,84.2,84.171,84.1875,2910
172,84.2,84.2,84.19,84.19,600
173,84.16,84.21,84.16,84.19,1900
174,84.16,84.16,84.12,84.16,3198
175,84.14,84.16,84.1283,84.15,1600
176,84.15,84.17,84.11,84.13,3550
177,84.225,84.23,84.15,84.15,3219
178,84.21,84.22,84.21,84.22,800
179,84.2,84.22,84.2,84.21,2633
180,84.24,84.24,84.2085,84.2085,2617
181,84.1984,84.22,84.19,84.21,895
182,84.2,84.225,84.19,84.19,3917
183,84.21,84.22,84.21,84.22,3250
184,84.2,84.24,84.2,84.22,1700
185,84.21,84.22,84.2,84.2,1100
186,84.21,84.21,84.2,84.21,1450
187,84.21,84.22,84.21,84.21,300
188,84.21,84.21,84.21,84.21,100
189,84.22,84.22,84.21,84.21,400
190,84.19,84.225,84.19,84.225,2000
191,84.205,84.21,84.1853,84.2,1700
192,84.2099,84.21,84.2099,84.21,513
193,84.22,84.25,84.2001,84.2001,2874
194,84.2337,84.2337,84.22,84.22,319
195,84.23,84.25,84.22,84.24,2200
196,84.22,84.24,84.21,84.23,1796
197,84.225,84.23,84.2183,84.2183,873
198,84.2138,84.24,84.2001,84.225,3337
199,84.2059,84.22,84.2059,84.22,200
200,84.2,84.2,84.185,84.2,2940
201,84.2,84.21,84.19,84.19,1049
202,84.2,84.21,84.19,84.2,3000
203,84.22,84.22,84.19,84.21,2000
204,84.19,84.22,84.19,84.22,1600
205,84.24,84.24,84.21,84.21,1200
206,84.25,84.26,84.22,84.2275,3263
207,84.27,84.27,84.25,84.27,901
208,84.28,84.28,84.2375,84.26,3123
209,84.25,84.28,84.24,84.27,2381
210,84.2505,84.29,84.25,84.25,6040
211,84.29,84.3,84.27,84.27,2100
212,84.34,84.34,84.3,84.3,4647
213,84.4,84.4,84.35,84.35,4500
214,84.4,84.41,84.37,84.3783,6311
215,84.37,84.41,84.37,84.4,6331
216,84.4,84.41,84.37,84.37,3124
217,84.415,84.44,84.39,84.405,3795
218,84.4,84.42,84.4,84.41,1415
219,84.42,84.42,84.38,84.39,3000
220,84.38,84.43,84.38,84.42,2410
221,84.36,84.408,84.36,84.38,1700
222,84.33,84.38,84.33,84.38,900
223,84.34,84.36,84.34,84.34,2948
224,84.33,84.33,84.33,84.33,300
225,84.35,84.35,84.33,84.33,1200
226,84.37,84.37,84.34,84.36,5900
227,84.4,84.4,84.37,84.37,5251
228,84.44,84.45,84.4,84.4,1000
229,84.45,84.45,84.42,84.44,7618
230,84.48,84.48,84.4586,84.46,977
231,84.43,84.47,84.43,84.47,2330
232,84.45,84.45,84.44,84.44,1200
233,84.45,84.45,84.42,84.45,900
234,84.47,84.53,84.43,84.43,6279
235,84.47,84.49,84.47,84.49,500
236,84.46,84.48,84.46,84.47,4985
237,84.447,84.46,84.43,84.45,6030
238,84.45,84.45,84.42,84.45,3900
239,84.46,84.46,84.44,84.44,600
240,84.44,84.45,84.42,84.45,5179
241,84.44,84.45,84.44,84.44,1145
242,84.45,84.45,84.4076,84.44,3221
243,84.43,84.46,84.41,84.45,5270
244,84.44,84.46,84.42,84.44,3200
245,84.45,84.455,84.43,84.45,5600
246,84.45,84.46,84.4465,84.4493,802
247,84.45,84.45,84.445,84.45,400
248,84.45,84.4852,84.441,84.45,3473
249,84.45,84.46,84.44,84.46,3065
250,84.4415,84.45,84.4415,84.45,775
251,84.45,84.45,84.44,84.45,1750
252,84.45,84.45,84.44,84.44,8243
253,84.45,84.45,84.44,84.45,4248
254,84.4,84.45,84.4,84.45,4135
255,84.43,84.43,84.4,84.4,940
256,84.43,84.43,84.4102,84.42,2200
257,84.44,84.44,84.43,84.43,1650
258,84.44,84.44,84.43,84.43,1120
259,84.45,84.47,84.45,84.46,3400
260,84.45,84.45,84.45,84.45,1436
261,84.45,84.46,84.44,84.45,3139
262,84.44,84.46,84.4396,84.45,1900
263,84.45,84.46,84.4414,84.45,2051
264,84.45,84.47,84.4406,84.4406,1984
265,84.45,84.45,84.44,84.45,3800
266,84.5,84.51,84.45,84.45,8812
267,84.5,84.5,84.4899,84.49,6800
268,84.5,84.5,84.47,84.5,6400
269,84.5,84.51,84.5,84.5,2335
270,84.48,84.5,84.47,84.5,4606
271,84.44,84.49,84.44,84.49,2406
272,84.42,84.43,84.42,84.43,3300
273,84.41,84.42,84.395,84.42,6029
274,84.4,84.41,84.39,84.4,5903
275,84.371,84.4,84.371,84.39,3765
276,84.34,84.39,84.34,84.38,933
277,84.33,84.345,84.3,84.3199,5115
278,84.335,84.34,84.32,84.335,2915
279,84.315,84.34,84.31,84.3246,2960
280,84.335,84.35,84.3245,84.33,1300
281,84.34,84.35,84.3334,84.335,1924
282,84.33,84.34,84.32,84.33,4421
283,84.3428,84.35,84.32,84.33,3507
284,84.36,84.36,84.35,84.35,900
285,84.3321,84.37,84.3321,84.37,1260
286,84.34,84.34,84.34,84.34,300
287,84.34,84.36,84.33,84.33,4300
288,84.35,84.36,84.335,84.34,8293
289,84.36,84.36,84.34,84.35,5900
290,84.34,84.37,84.33,84.34,5059
291,84.34,84.35,84.3245,84.335,1200
292,84.31,84.35,84.3,84.34,3900
293,84.32,84.32,84.3,84.31,891
294,84.33,84.33,84.3,84.309,1200
295,84.32,84.34,84.31,84.325,4300
296,84.32,84.33,84.3,84.31,3564
297,84.32,84.32,84.31,84.31,2750
298,84.295,84.33,84.29,84.32,5953
299,84.29,84.29,84.27,84.28,2500
300,84.27,84.28,84.26,84.2705,1179
301,84.3,84.3,84.27,84.28,800
302,84.255,84.285,84.24,84.27,4700
303,84.23,84.255,84.2245,84.255,2424
304,84.26,84.26,84.22,84.23,4150
305,84.25,84.25,84.22,84.23,1188
306,84.19,84.245,84.19,84.23,2917
307,84.173,84.19,84.17,84.17,1700
308,84.165,84.18,84.165,84.17,800
309,84.12,84.165,84.12,84.15,2066
310,84.12,84.13,84.11,84.11,2262
311,84.11,84.12,84.11,84.11,900
312,84.07,84.14,84.07,84.11,3050
313,84.06,84.08,84.06,84.06,1800
314,84.06,84.07,84.06,84.068,625
315,84.06,84.07,84.06,84.07,1400
316,84.0514,84.07,84.04,84.04,300
317,84.07,84.09,84.0514,84.06,3111
318,84.04,84.06,84.01,84.06,2600
319,84.04,84.0607,84.04,84.06,1800
320,84.03,84.04,84.03,84.04,200
321,84.0586,84.0586,84.03,84.03,800
322,84.05,84.089,84.04,84.06,2951
323,84.02,84.04,84.02,84.04,1400
324,84.07,84.07,84.01,84.01,2100
326,84.08,84.08,84.06,84.07,1800
327,84.08,84.11,84.08,84.1,1108
328,84.0999,84.1,84.0702,84.0702,2815
329,84.11,84.1265,84.09,84.1,3395
330,84.11,84.14,84.11,84.12,1851
331,84.12,84.16,84.1095,84.11,3150
332,84.13,84.145,84.1298,84.13,1650
333,84.115,84.13,84.115,84.13,524
334,84.13,84.13,84.115,84.12,2228
335,84.17,84.17,84.1281,84.1281,1615
336,84.145,84.17,84.134,84.134,2002
337,84.141,84.15,84.14,84.1434,1843
338,84.1625,84.18,84.1598,84.1598,700
339,84.2,84.2,84.165,84.18,928
340,84.21,84.21,84.19,84.19,2100
341,84.2,84.22,84.19,84.2,700
342,84.21,84.21,84.19,84.2,1700
343,84.215,84.24,84.2064,84.2064,3150
344,84.19,84.23,84.19,84.23,3400
345,84.17,84.205,84.17,84.205,2000
346,84.2,84.2,84.17,84.17,1900
347,84.25,84.25,84.195,84.195,3600
348,84.26,84.26,84.24,84.25,3762
349,84.29,84.34,84.255,84.255,9041
350,84.33,84.35,84.29,84.29,3248
351,84.39,84.41,84.34,84.34,6682
352,84.36,84.41,84.35,84.39,11500
353,84.335,84.37,84.32,84.37,9298
354,84.31,84.33,84.305,84.33,3700
355,84.28,84.32,84.27,84.31,2940
356,84.26,84.27,84.26,84.27,400
357,84.31,84.31,84.25,84.26,2700
358,84.305,84.33,84.305,84.305,8354
359,84.265,84.32,84.265,84.3,3170
360,84.28,84.3,84.27,84.29,3002
361,84.29,84.29,84.25,84.27,5811
362,84.285,84.33,84.285,84.3,3000
363,84.25,84.34,84.25,84.29,8345
364,84.27,84.29,84.25,84.25,4391
365,84.26,84.27,84.25,84.27,4312
366,84.29,84.32,84.23,84.26,4600
367,84.27,84.27,84.26,84.27,3100
368,84.23,84.28,84.17,84.26,8146
369,84.21,84.22,84.17,84.22,2421
370,84.226,84.24,84.21,84.24,2770
371,84.21,84.22,84.19,84.22,2605
372,84.19,84.21,84.18,84.2,3600
373,84.215,84.24,84.18,84.19,4250
374,84.24,84.26,84.21,84.225,3780
375,84.24,84.28,84.23,84.25,5888
376,84.22,84.24,84.21,84.24,2510
377,84.29,84.29,84.2,84.23,4858
378,84.3368,84.3368,84.2772,84.2772,1870
379,84.32,84.34,84.31,84.328,10520
380,84.31,84.33,84.305,84.329,7420
381,84.28,84.31,84.27,84.31,3743
382,84.27,84.2813,84.26,84.2813,4490
383,84.26,84.29,84.26,84.2799,9124
384,84.22,84.25,84.22,84.25,2210
385,84.2,84.24,84.19,84.22,13460
386,84.23,84.24,84.2,84.205,11115
387,84.2,84.23,84.2,84.22,5857
388,84.2,84.21,84.18,84.2,5346
389,84.19,84.23,84.16,84.2,14146
390,84.24,84.26,84.18,84.19,12350
