PPG,PPG Industries,Materials,8,Specialty Chemicals,26812391627,1578671
a1503408600,102.66,102.66,102.66,102.66,9691
1,102.45,102.66,102.37,102.66,700
2,102.7102,102.7102,102.42,102.44,2704
3,102.85,102.85,102.73,102.73,800
4,103.03,103.03,102.86,102.86,1200
5,103.02,103.05,103.02,103.05,200
6,103.08,103.08,102.9,102.9,900
7,103.12,103.14,103.01,103.13,800
8,103.2,103.2,103.16,103.16,300
9,103.25,103.26,103.19,103.19,600
10,103.38,103.49,103.29,103.29,2600
11,103.19,103.35,103.19,103.35,900
12,103.26,103.26,103.23,103.25,700
13,103.25,103.26,103.25,103.26,390
14,103.19,103.21,103.19,103.21,400
16,103.215,103.215,103.18,103.19,500
18,103.14,103.17,103.14,103.17,800
19,103.13,103.14,103.13,103.14,877
20,103.11,103.15,103.11,103.13,600
21,103.1315,103.1315,103.1315,103.1315,105
22,103.22,103.22,103.19,103.19,800
23,103.18,103.22,103.18,103.22,400
25,103.19,103.19,103.19,103.19,200
27,103.215,103.23,103.195,103.195,1000
28,103.22,103.22,103.16,103.22,18689
29,103.22,103.22,103.18,103.2,1000
30,103.2,103.24,103.2,103.23,1250
31,103.25,103.25,103.2,103.2,600
32,103.24,103.26,103.24,103.25,800
33,103.24,103.24,103.24,103.24,100
34,103.275,103.275,103.25,103.26,800
35,103.22,103.28,103.22,103.28,1012
36,103.21,103.22,103.195,103.22,1600
37,103.26,103.26,103.24,103.24,600
38,103.25,103.275,103.25,103.26,1500
39,103.25,103.27,103.23,103.235,800
40,103.27,103.27,103.25,103.25,300
41,103.29,103.29,103.28,103.28,2200
42,103.26,103.285,103.25,103.285,3523
43,103.261,103.27,103.261,103.27,500
44,103.28,103.31,103.28,103.29,900
45,103.33,103.39,103.33,103.39,700
46,103.31,103.32,103.31,103.32,400
47,103.3244,103.33,103.29,103.33,1792
48,103.312,103.358,103.31,103.358,5694
49,103.3,103.3,103.3,103.3,300
50,103.315,103.315,103.29,103.3,900
51,103.26,103.32,103.26,103.32,1072
52,103.26,103.26,103.26,103.26,200
53,103.265,103.265,103.26,103.26,700
55,103.23,103.27,103.23,103.255,1200
56,103.26,103.29,103.2298,103.2298,5000
57,103.295,103.33,103.28,103.28,2700
58,103.37,103.37,103.295,103.295,1800
59,103.35,103.37,103.34,103.37,2200
60,103.3652,103.3652,103.3652,103.3652,520
61,103.34,103.35,103.33,103.35,1260
62,103.32,103.32,103.32,103.32,300
63,103.32,103.32,103.3,103.31,2200
64,103.38,103.38,103.33,103.33,600
65,103.38,103.38,103.3664,103.3664,300
66,103.3102,103.36,103.31,103.35,1160
67,103.33,103.34,103.33,103.33,1000
69,103.36,103.37,103.35,103.35,1900
70,103.375,103.38,103.36,103.36,500
71,103.37,103.37,103.37,103.37,200
72,103.37,103.375,103.3,103.375,6594
73,103.4399,103.44,103.36,103.36,1500
74,103.49,103.49,103.45,103.45,2100
75,103.6,103.6,103.49,103.5,12900
76,103.48,103.58,103.48,103.58,3741
77,103.475,103.53,103.47,103.5,3063
78,103.415,103.46,103.415,103.46,649
79,103.455,103.455,103.4212,103.44,2215
80,103.455,103.46,103.455,103.46,300
81,103.45,103.45,103.45,103.45,300
82,103.47,103.47,103.45,103.45,700
83,103.48,103.5,103.47,103.485,500
84,103.5,103.51,103.46,103.47,1272
85,103.55,103.57,103.524,103.529,1842
86,103.54,103.58,103.53,103.56,1399
87,103.53,103.54,103.53,103.54,500
88,103.55,103.55,103.54,103.54,1000
89,103.55,103.56,103.55,103.56,1300
90,103.56,103.56,103.56,103.56,400
91,103.56,103.58,103.56,103.57,600
92,103.53,103.57,103.52,103.56,1701
93,103.5,103.52,103.49,103.52,2749
95,103.49,103.5,103.49,103.5,300
96,103.46,103.46,103.46,103.46,100
98,103.46,103.46,103.46,103.46,200
99,103.49,103.49,103.47,103.47,1200
100,103.48,103.5,103.48,103.5,1158
101,103.47,103.47,103.47,103.47,300
102,103.43,103.44,103.43,103.44,200
103,103.39,103.405,103.39,103.39,400
104,103.4,103.4,103.4,103.4,100
105,103.47,103.47,103.41,103.41,1430
106,103.435,103.45,103.43,103.44,1100
107,103.47,103.47,103.44,103.44,800
108,103.4812,103.5,103.48,103.49,2170
110,103.47,103.485,103.47,103.47,300
111,103.47,103.47,103.47,103.47,1000
112,103.43,103.43,103.43,103.43,300
113,103.48,103.48,103.42,103.42,1957
114,103.49,103.49,103.46,103.46,1308
115,103.53,103.53,103.475,103.475,900
116,103.56,103.56,103.54,103.54,1300
117,103.56,103.58,103.55,103.57,1100
118,103.57,103.59,103.56,103.56,800
119,103.6,103.61,103.58,103.58,1200
120,103.64,103.64,103.6,103.6,1100
121,103.67,103.67,103.65,103.65,400
122,103.79,103.8,103.66,103.68,1807
123,103.81,103.81,103.765,103.765,900
124,103.72,103.81,103.72,103.81,2100
125,103.77,103.8,103.73,103.75,700
126,103.84,103.84,103.77,103.81,2000
127,103.76,103.84,103.76,103.82,2100
128,103.765,103.78,103.75,103.78,700
129,103.81,103.81,103.765,103.765,1400
130,103.79,103.83,103.79,103.83,1586
131,103.81,103.81,103.79,103.81,1000
132,103.87,103.87,103.83,103.84,1000
133,103.89,103.89,103.85,103.85,1100
134,103.82,103.89,103.82,103.86,2284
135,103.76,103.82,103.76,103.82,2000
136,103.8,103.8,103.75,103.76,1832
137,103.82,103.82,103.82,103.82,100
138,103.77,103.83,103.77,103.81,3365
139,103.85,103.86,103.81,103.81,600
140,103.82,103.84,103.82,103.84,600
142,103.86,103.86,103.83,103.83,1400
143,103.88,103.88,103.8714,103.8799,800
144,103.86,103.9,103.86,103.88,1508
145,103.85,103.87,103.84,103.87,850
147,103.84,103.86,103.83,103.83,2296
148,103.83,103.84,103.83,103.84,804
149,103.8,103.835,103.8,103.83,2900
150,103.77,103.8,103.77,103.8,4497
151,103.85,103.85,103.78,103.78,3740
152,103.85,103.87,103.84,103.84,900
153,103.87,103.87,103.87,103.87,300
154,103.85,103.85,103.83,103.83,700
155,103.79,103.8485,103.79,103.84,1813
156,103.75,103.8,103.75,103.8,500
157,103.77,103.77,103.74,103.74,1325
158,103.82,103.82,103.81,103.81,500
159,103.815,103.83,103.81,103.82,1101
160,103.81,103.81,103.81,103.81,100
161,103.77,103.82,103.75,103.82,2099
163,103.809,103.809,103.75,103.79,1882
164,103.81,103.81,103.79,103.81,400
165,103.82,103.83,103.81,103.81,700
167,103.85,103.85,103.85,103.85,200
168,103.85,103.86,103.85,103.86,600
169,103.83,103.83,103.82,103.83,3180
170,103.825,103.825,103.825,103.825,411
171,103.825,103.83,103.825,103.83,200
172,103.82,103.83,103.82,103.82,402
174,103.81,103.82,103.81,103.81,820
175,103.81,103.815,103.81,103.81,632
176,103.805,103.82,103.8,103.81,2944
177,103.84,103.84,103.785,103.805,4524
178,103.865,103.88,103.83,103.84,2200
179,103.9,103.935,103.88,103.88,4162
180,103.924,103.924,103.9,103.9,453
181,103.9024,103.92,103.9024,103.92,526
182,103.88,103.91,103.88,103.91,200
183,103.89,103.895,103.86,103.88,2451
184,103.885,103.885,103.885,103.885,200
185,103.885,103.885,103.885,103.885,100
186,103.93,103.93,103.9,103.9,900
187,103.9,103.92,103.89,103.92,1300
188,103.91,103.91,103.91,103.91,300
189,103.91,103.91,103.9,103.91,400
190,103.9,103.93,103.9,103.92,1240
191,103.89,103.92,103.89,103.91,700
192,103.87,103.89,103.87,103.89,84720
193,103.91,103.91,103.86,103.86,1189
195,103.95,103.96,103.92,103.92,2010
196,103.92,103.955,103.92,103.94,900
197,103.92,103.92,103.92,103.92,400
198,103.941,103.97,103.941,103.95,1100
199,103.943,103.943,103.943,103.943,100
200,103.9699,103.9699,103.955,103.955,302
201,103.99,104,103.97,103.97,1600
202,103.99,103.99,103.97,103.98,1200
203,103.99,104,103.97,104,300
204,103.97,103.98,103.96,103.97,1200
205,103.98,103.98,103.97,103.97,500
207,103.9799,103.99,103.9799,103.99,200
208,103.9897,104,103.97,103.97,1600
209,103.9998,104,103.985,103.99,1600
210,104.02,104.02,103.9991,104.02,500
211,104.01,104.01,104.01,104.01,901
212,104.02,104.02,103.99,104,1200
213,104.01,104.01,104.01,104.01,300
214,104.0108,104.03,104,104.01,2533
215,104.01,104.03,104.01,104.03,618
216,103.95,104.01,103.95,104.01,1500
217,103.92,103.96,103.92,103.94,1745
218,103.89,103.89,103.89,103.89,193
219,103.88,103.89,103.87,103.89,1408
220,103.86,103.89,103.83,103.89,2600
222,103.85,103.8751,103.85,103.8751,1270
223,103.824,103.824,103.82,103.82,321
224,103.8,103.82,103.8,103.82,900
225,103.83,103.84,103.8,103.8,1200
226,103.79,103.84,103.79,103.84,600
227,103.77,103.79,103.77,103.79,3800
228,103.76,103.79,103.76,103.76,2500
229,103.76,103.76,103.71,103.74,1000
230,103.75,103.75,103.75,103.75,100
231,103.77,103.77,103.75,103.75,1000
232,103.7724,103.78,103.7707,103.7707,1301
233,103.795,103.795,103.77,103.77,800
234,103.82,103.82,103.81,103.81,800
235,103.84,103.84,103.82,103.82,790
236,103.838,103.838,103.838,103.838,300
237,103.84,103.84,103.8312,103.838,850
238,103.86,103.86,103.85,103.85,300
239,103.86,103.86,103.85,103.85,1100
241,103.88,103.89,103.88,103.88,2100
242,103.87,103.9,103.87,103.9,1431
243,103.89,103.89,103.88,103.88,400
244,103.89,103.93,103.89,103.93,300
245,103.92,103.92,103.91,103.91,300
246,103.94,103.96,103.9,103.9,1800
247,103.93,103.94,103.93,103.94,200
248,103.91,103.93,103.91,103.92,498
249,103.88,103.9,103.88,103.9,1217
250,103.89,103.9098,103.89,103.89,456
251,103.89,103.895,103.88,103.89,1671
252,103.89,103.91,103.89,103.9,1300
254,103.87,103.89,103.87,103.89,600
255,103.86,103.88,103.86,103.88,300
256,103.86,103.86,103.85,103.86,895
257,103.88,103.88,103.86,103.86,600
258,103.89,103.89,103.88,103.88,700
260,103.97,103.97,103.875,103.88,2297
262,103.92,103.97,103.92,103.96,2100
263,103.9087,103.92,103.9,103.91,908
264,103.91,103.91,103.89,103.89,1253
265,103.9,103.92,103.9,103.91,1100
266,103.8847,103.9,103.88,103.8986,1833
267,103.89,103.9,103.89,103.89,600
268,103.915,103.915,103.9,103.9,1990
269,103.95,103.96,103.92,103.92,2890
270,103.99,103.99,103.96,103.96,2900
271,104.06,104.08,103.99,103.99,6012
272,104.02,104.04,104.02,104.04,200
273,104.04,104.04,104.01,104.01,1496
274,104.03,104.03,104.02,104.02,200
275,104.02,104.035,104.02,104.03,700
276,104.01,104.02,104,104.02,2458
277,104.0107,104.0107,103.98,104.01,2239
278,104,104,103.99,104,1170
279,104,104.01,103.99,104,2066
280,104,104,104,104,100
281,104.01,104.02,104.01,104.01,1848
282,104,104.03,104,104.02,2000
283,104.03,104.03,104,104,661
284,104.01,104.03,104.01,104.02,300
285,104.02,104.03,104.02,104.02,800
286,104.04,104.04,104.02,104.0201,968
287,104.05,104.06,104.05,104.05,1500
288,104.04,104.055,104.04,104.055,3216
289,104.06,104.06,104.02,104.06,2600
290,104.09,104.095,104.05,104.05,1084
291,104.11,104.11,104.09,104.1,1607
292,104.1,104.13,104.1,104.11,2450
293,104.1,104.1,104.1,104.1,500
294,104.09,104.1,104.08,104.1,1047
295,104.1,104.11,104.09,104.1,1100
296,104.1467,104.1467,104.09,104.1,4600
297,104.14,104.16,104.11,104.15,3355
298,104.115,104.14,104.11,104.13,3664
299,104.09,104.1102,104.09,104.1,546
300,104.08,104.09,104.08,104.09,600
301,104.11,104.11,104.085,104.085,2500
302,104.11,104.13,104.11,104.11,1799
303,104.16,104.16,104.11,104.11,2000
304,104.23,104.23,104.1655,104.17,1104
305,104.24,104.24,104.19,104.22,1000
306,104.21,104.22,104.21,104.21,800
307,104.22,104.24,104.2001,104.21,3134
308,104.22,104.22,104.19,104.19,650
309,104.21,104.2227,104.21,104.22,1978
311,104.19,104.21,104.19,104.2041,1054
312,104.17,104.2,104.16,104.19,3056
313,104.15,104.15,104.15,104.15,200
314,104.19,104.2,104.15,104.16,1705
315,104.21,104.24,104.19,104.21,3544
316,104.211,104.23,104.211,104.23,500
317,104.2,104.24,104.2,104.21,3853
318,104.19,104.19,104.19,104.19,1400
319,104.23,104.23,104.18,104.1802,2374
320,104.22,104.23,104.22,104.23,1200
321,104.25,104.25,104.23,104.23,1910
322,104.21,104.24,104.21,104.24,700
323,104.235,104.24,104.22,104.22,1300
324,104.3,104.3,104.23,104.25,5210
325,104.385,104.39,104.3,104.3,7576
326,104.35,104.4,104.35,104.4,1261
327,104.3,104.355,104.3,104.355,2098
328,104.29,104.3,104.29,104.3,800
329,104.36,104.36,104.28,104.29,3717
330,104.38,104.38,104.344,104.344,4468
331,104.39,104.4,104.37,104.38,3527
332,104.34,104.39,104.34,104.39,2598
333,104.33,104.33,104.33,104.33,100
334,104.33,104.36,104.33,104.33,2330
335,104.39,104.4,104.35,104.35,2300
336,104.35,104.4,104.35,104.4,2933
337,104.36,104.36,104.34,104.34,500
338,104.35,104.37,104.35,104.36,3650
339,104.345,104.36,104.34,104.36,2059
340,104.4,104.4,104.35,104.36,3599
341,104.38,104.39,104.38,104.39,1548
342,104.395,104.41,104.38,104.39,3456
343,104.41,104.41,104.395,104.395,200
344,104.45,104.45,104.41,104.41,1691
345,104.41,104.425,104.4,104.42,2600
346,104.42,104.44,104.4,104.41,2734
347,104.44,104.44,104.41,104.41,3262
348,104.46,104.47,104.435,104.435,2207
349,104.53,104.54,104.48,104.48,6358
350,104.52,104.55,104.52,104.54,1689
351,104.51,104.52,104.51,104.52,500
352,104.48,104.51,104.47,104.51,4978
353,104.48,104.49,104.47,104.48,2065
354,104.44,104.47,104.44,104.47,3281
355,104.5,104.52,104.42,104.44,6796
356,104.47,104.48,104.47,104.48,300
357,104.47,104.48,104.45,104.47,2235
358,104.51,104.51,104.46,104.46,3197
359,104.49,104.51,104.49,104.51,1690
360,104.48,104.48,104.48,104.48,400
361,104.49,104.51,104.49,104.5,3966
362,104.45,104.49,104.45,104.49,3266
363,104.48,104.49,104.44,104.44,3554
364,104.5,104.5,104.48,104.48,1500
365,104.495,104.52,104.49,104.51,5391
366,104.5,104.5,104.49,104.49,3722
367,104.5625,104.57,104.5,104.5,5291
368,104.55,104.56,104.55,104.56,4213
369,104.56,104.565,104.56,104.56,1750
370,104.58,104.59,104.56,104.56,3175
371,104.57,104.585,104.57,104.585,2678
372,104.59,104.59,104.57,104.57,2686
373,104.59,104.59,104.57,104.575,2217
374,104.61,104.63,104.59,104.59,4230
375,104.66,104.67,104.61,104.62,13935
376,104.65,104.67,104.65,104.67,10373
377,104.68,104.69,104.65,104.65,5534
378,104.7099,104.71,104.68,104.68,3740
379,104.72,104.745,104.7,104.71,7547
380,104.73,104.73,104.71,104.73,6604
381,104.68,104.72,104.68,104.72,7067
382,104.685,104.69,104.68,104.68,1713
383,104.62,104.69,104.62,104.69,10049
384,104.62,104.63,104.62,104.62,2205
385,104.625,104.65,104.62,104.62,12686
386,104.6,104.6299,104.6,104.62,6914
387,104.6,104.61,104.6,104.6,3679
388,104.56,104.61,104.56,104.61,8291
389,104.52,104.5699,104.5,104.56,8153
390,104.54,104.57,104.51,104.515,18265
