EOG,EOG Resources,Energy,3,Oil & Gas Exploration & Production,48326632146,3299031
a1503322200,83.51,83.81,83.51,83.81,20062
1,83.68,83.82,83.63,83.63,2757
2,83.82,83.82,83.67,83.81,2600
3,83.88,83.88,83.81,83.87,1100
4,83.79,83.8429,83.67,83.81,5000
5,83.91,83.99,83.79,83.82,6188
6,83.93,83.97,83.87,83.88,2201
7,83.95,84.01,83.94,83.94,4389
8,84,84.04,83.93,84.04,2079
9,83.93,84.02,83.93,84,2222
10,83.81,83.94,83.81,83.9152,1600
11,83.815,83.815,83.77,83.8,2525
12,83.85,83.93,83.84,83.84,3530
13,83.93,83.93,83.8,83.84,2099
14,83.96,83.96,83.92,83.92,300
15,84.02,84.03,83.95,84,1667
16,84.005,84.03,83.97,83.99,2300
17,83.87,83.97,83.85,83.97,2948
18,83.87,83.915,83.83,83.83,2129
19,83.91,83.92,83.88,83.89,800
20,83.99,83.99,83.94,83.94,1116
21,83.89,84.02,83.89,83.9681,4431
22,83.9,83.9,83.89,83.89,200
23,83.82,83.9,83.82,83.86,4098
24,83.8,83.85,83.79,83.8,3790
25,83.82,83.82,83.75,83.8,4056
26,83.8,83.84,83.76,83.81,3752
27,83.8,83.815,83.78,83.79,1734
28,83.76,83.81,83.75,83.81,1150
29,83.78,83.79,83.735,83.75,2550
30,83.78,83.79,83.74,83.78,2614
31,83.84,83.85,83.74,83.74,3531
32,83.86,83.91,83.84,83.85,9665
33,83.84,83.87,83.82,83.85,3615
34,83.84,83.86,83.83,83.84,3010
35,83.92,83.92,83.84,83.85,2900
36,83.92,83.92,83.87,83.9,2600
37,83.9,83.92,83.86,83.88,6378
38,84.01,84.01,83.89,83.89,5426
39,84.09,84.09,84.02,84.02,3434
40,84.18,84.18,84.08,84.12,9785
41,84.2,84.2,84.15,84.17,4718
42,84.21,84.26,84.2,84.21,15284
43,84.09,84.2161,84.09,84.2,11773
44,84.17,84.21,84.11,84.11,4849
45,84.24,84.32,84.19,84.19,4200
46,84.2498,84.26,84.22,84.23,7892
47,84.23,84.29,84.21,84.23,12220
48,84.06,84.23,84.06,84.21,12128
49,84.03,84.07,84.03,84.06,2301
50,83.99,84.05,83.98,84.03,6510
51,83.94,83.95,83.93,83.95,1240
52,83.9,83.958,83.9,83.958,8602
53,83.91,83.94,83.89,83.9,2850
54,83.95,83.96,83.92,83.93,600
55,83.91,83.95,83.91,83.95,1100
56,83.86,83.92,83.85,83.9,2960
57,83.895,83.91,83.86,83.86,1826
58,83.92,83.92,83.88,83.88,2675
59,83.96,83.96,83.95,83.95,300
60,83.98,83.99,83.96,83.96,2514
61,83.92,83.97,83.92,83.97,6505
62,83.89,83.91,83.89,83.91,1308
63,83.845,83.89,83.83,83.89,2750
64,83.85,83.8752,83.85,83.85,3020
65,83.89,83.89,83.84,83.84,3061
66,83.91,83.93,83.86,83.89,5050
67,83.88,83.93,83.87,83.92,6608
68,83.84,83.91,83.84,83.88,6970
69,83.8201,83.86,83.8201,83.85,1925
70,83.83,83.85,83.8201,83.83,3300
71,83.84,83.87,83.84,83.85,5374
72,83.98,84.01,83.87,83.88,2850
73,84.03,84.0725,84.03,84.06,7755
74,83.98,84.02,83.96,84.02,3599
75,83.9,83.96,83.9,83.96,3250
76,83.93,83.93,83.89,83.89,2300
77,83.89,83.92,83.89,83.92,1750
78,83.95,83.97,83.91,83.91,4958
79,83.98,83.98,83.96,83.97,1250
80,83.98,83.98,83.94,83.955,1953
81,83.92,83.98,83.92,83.98,3834
82,83.87,83.93,83.87,83.93,1680
83,83.84,83.9,83.83,83.862,3410
84,83.86,83.86,83.82,83.83,1675
85,83.96,83.96,83.86,83.86,1722
86,83.96,83.97,83.94,83.94,2542
87,84.025,84.025,83.98,83.98,1350
88,83.97,84.03,83.95,84.01,3400
89,83.96,84,83.96,83.97,2419
90,84.1,84.12,83.97,83.97,3642
91,84.06,84.09,84.04,84.09,4150
92,84.08,84.09,84.05,84.06,3000
93,84.07,84.07,84.03,84.06,7610
94,84.04,84.05,84.01,84.05,5856
95,84.04,84.05,83.99,84.01,15257
96,84.02,84.04,84.01,84.03,5262
97,83.97,84.02,83.9301,84.02,3670
98,83.95,83.9848,83.94,83.98,1673
99,83.96,83.98,83.94,83.955,6637
100,83.96,83.99,83.95,83.99,7485
101,84,84.02,83.97,83.98,3056
102,83.97,84.04,83.97,84.0148,3827
103,84.02,84.05,83.9601,83.9601,4570
104,84.03,84.042,83.99,84,1180
105,83.99,84.03,83.99,84.01,2300
106,83.94,83.99,83.94,83.99,2800
107,83.95,83.97,83.93,83.93,2300
108,83.91,83.94,83.89,83.94,2930
109,83.88,83.92,83.88,83.9,2780
110,83.92,83.92,83.85,83.87,1178
111,83.91,83.94,83.91,83.92,2370
112,83.86,83.905,83.86,83.9,1400
113,83.9,83.92,83.86,83.86,1700
114,83.94,83.94,83.9,83.9,2600
115,83.88,83.94,83.88,83.94,3000
116,83.81,83.87,83.81,83.86,2200
117,83.83,83.84,83.8,83.84,4149
118,83.85,83.86,83.85,83.85,1042
119,83.84,83.89,83.83,83.85,3800
120,83.79,83.81,83.76,83.81,4200
121,83.77,83.79,83.74,83.78,4186
122,83.75,83.79,83.74,83.78,2600
123,83.73,83.74,83.72,83.74,800
124,83.7,83.72,83.7,83.72,1300
125,83.66,83.72,83.65,83.718,3878
126,83.675,83.69,83.66,83.66,2500
127,83.68,83.7,83.66,83.7,1400
128,83.71,83.71,83.66,83.66,1500
129,83.7,83.72,83.69,83.72,1800
130,83.72,83.74,83.64,83.68,6100
131,83.65,83.73,83.65,83.72,2050
132,83.63,83.65,83.62,83.65,900
133,83.64,83.66,83.61,83.61,11110
134,83.64,83.64,83.62,83.62,650
135,83.68,83.68,83.65,83.65,1600
136,83.67,83.7,83.67,83.67,4173
137,83.67,83.67,83.66,83.66,310
138,83.68,83.68,83.65,83.66,900
139,83.7,83.71,83.68,83.69,3458
140,83.68,83.7,83.68,83.68,1700
141,83.66,83.69,83.66,83.686,962
142,83.55,83.66,83.55,83.66,6268
143,83.58,83.61,83.57,83.57,8686
144,83.5721,83.58,83.5721,83.58,800
145,83.61,83.61,83.56,83.57,2732
146,83.59,83.61,83.59,83.606,1333
147,83.59,83.62,83.59,83.6,4214
148,83.5092,83.61,83.5092,83.6,8802
149,83.58,83.58,83.52,83.52,1700
150,83.48,83.56,83.45,83.56,9550
151,83.52,83.52,83.5,83.5,300
152,83.5546,83.5546,83.55,83.55,800
153,83.58,83.58,83.58,83.58,200
154,83.59,83.59,83.54,83.56,1300
155,83.62,83.62,83.61,83.61,200
156,83.62,83.62,83.59,83.6,950
157,83.63,83.63,83.5903,83.61,2550
158,83.615,83.62,83.61,83.62,1500
159,83.635,83.64,83.62,83.64,4690
160,83.64,83.64,83.62,83.62,2200
161,83.62,83.6397,83.62,83.6388,1237
162,83.62,83.62,83.62,83.62,400
163,83.65,83.65,83.62,83.62,2226
164,83.65,83.66,83.64,83.6498,3800
165,83.59,83.64,83.59,83.64,2809
166,83.58,83.6,83.58,83.59,600
167,83.59,83.59,83.59,83.59,100
168,83.57,83.5864,83.57,83.58,900
169,83.6,83.61,83.56,83.56,2000
170,83.62,83.62,83.6,83.6,800
171,83.5801,83.62,83.5801,83.62,2591
172,83.6,83.63,83.59,83.59,1950
173,83.6102,83.63,83.61,83.61,1007
174,83.63,83.64,83.6118,83.64,1331
175,83.64,83.68,83.62,83.63,2300
176,83.68,83.68,83.65,83.66,600
177,83.65,83.67,83.64,83.65,2550
178,83.69,83.69,83.63,83.64,1700
179,83.7,83.7,83.65,83.68,3092
180,83.69,83.69,83.66,83.67,2700
181,83.69,83.69,83.68,83.68,1500
182,83.73,83.73,83.7,83.7,3000
183,83.81,83.81,83.74,83.74,900
184,83.79,83.81,83.77,83.79,4782
185,83.79,83.8,83.78,83.79,3176
186,83.78,83.78,83.75,83.78,2300
187,83.78,83.79,83.76,83.79,400
188,83.79,83.8,83.76,83.79,2024
189,83.84,83.84,83.81,83.81,1500
190,83.83,83.85,83.8,83.85,2400
191,83.82,83.85,83.81,83.84,5928
192,83.85,83.86,83.8203,83.83,2265
193,83.87,83.87,83.85,83.87,971
194,83.89,83.89,83.87,83.88,800
195,83.9,83.9,83.89,83.89,800
196,83.9,83.92,83.89,83.9,1350
197,83.9024,83.9024,83.88,83.89,1000
198,83.89,83.92,83.89,83.92,900
199,83.86,83.9,83.86,83.89,3775
200,83.84,83.85,83.84,83.85,200
201,83.82,83.83,83.82,83.83,1150
202,83.82,83.83,83.81,83.81,2244
203,83.82,83.82,83.82,83.82,100
204,83.81,83.82,83.8,83.82,1875
205,83.77,83.82,83.75,83.8,1908
206,83.75,83.76,83.75,83.75,500
207,83.75,83.77,83.73,83.74,3150
208,83.72,83.74,83.72,83.74,900
209,83.72,83.73,83.71,83.72,1800
210,83.69,83.74,83.69,83.74,1750
211,83.66,83.69,83.65,83.69,1354
212,83.61,83.669,83.61,83.669,6855
213,83.6,83.63,83.6,83.6,2680
214,83.6301,83.65,83.6,83.6,4200
215,83.6251,83.63,83.61,83.63,1081
216,83.69,83.71,83.64,83.64,2700
217,83.6858,83.72,83.68,83.72,1100
218,83.65,83.67,83.65,83.67,700
219,83.66,83.67,83.64,83.6499,2050
220,83.655,83.67,83.655,83.67,500
221,83.66,83.69,83.66,83.69,820
222,83.69,83.69,83.65,83.6504,750
223,83.68,83.68,83.65,83.65,500
224,83.65,83.68,83.64,83.65,800
225,83.6402,83.6449,83.6402,83.6449,346
226,83.63,83.65,83.63,83.65,400
227,83.62,83.63,83.62,83.63,1007
228,83.65,83.67,83.63,83.63,2668
229,83.63,83.65,83.63,83.65,875
230,83.6,83.65,83.6,83.64,1340
231,83.58,83.58,83.58,83.58,100
232,83.57,83.57,83.56,83.57,1200
233,83.5882,83.59,83.56,83.575,1735
234,83.62,83.64,83.61,83.61,967
235,83.65,83.65,83.62,83.62,1584
236,83.64,83.66,83.64,83.66,1300
237,83.64,83.65,83.64,83.65,313
238,83.62,83.64,83.62,83.64,600
239,83.61,83.62,83.61,83.62,1100
240,83.58,83.61,83.58,83.61,700
241,83.57,83.57,83.57,83.57,200
242,83.57,83.57,83.57,83.57,100
243,83.54,83.58,83.54,83.58,2036
244,83.53,83.5585,83.52,83.53,921
245,83.56,83.57,83.549,83.549,2650
246,83.54,83.55,83.54,83.55,982
247,83.55,83.57,83.54,83.56,2108
248,83.55,83.55,83.53,83.54,1060
249,83.54,83.55,83.53,83.53,2100
250,83.55,83.57,83.54,83.55,2700
251,83.62,83.62,83.56,83.56,2377
252,83.61,83.62,83.6,83.62,1500
253,83.61,83.61,83.59,83.61,1000
254,83.6,83.6,83.6,83.6,900
255,83.6111,83.62,83.61,83.61,2900
256,83.55,83.604,83.55,83.604,1743
257,83.53,83.5455,83.53,83.54,2800
258,83.53,83.55,83.53,83.53,1705
259,83.48,83.54,83.48,83.52,2554
260,83.47,83.4875,83.43,83.47,2237
261,83.45,83.4703,83.45,83.4703,1100
262,83.46,83.49,83.45,83.45,2600
263,83.44,83.45,83.42,83.44,1160
264,83.43,83.44,83.41,83.43,2000
265,83.46,83.47,83.46,83.47,300
266,83.47,83.47,83.42,83.43,1300
267,83.49,83.51,83.47,83.48,2200
268,83.45,83.51,83.45,83.49,1275
269,83.48,83.48,83.4623,83.4623,1528
270,83.47,83.47,83.45,83.45,1100
271,83.46,83.51,83.46,83.51,1300
272,83.49,83.49,83.4688,83.4698,1265
273,83.53,83.53,83.46,83.46,2164
274,83.53,83.58,83.52,83.54,3840
275,83.55,83.57,83.54,83.54,2359
276,83.57,83.57,83.55,83.55,1600
277,83.5776,83.58,83.54,83.56,3050
278,83.57,83.58,83.56,83.58,800
279,83.525,83.61,83.52,83.59,2173
280,83.56,83.56,83.54,83.54,800
281,83.52,83.55,83.5,83.53,1700
282,83.55,83.55,83.52,83.54,900
283,83.57,83.595,83.56,83.57,4050
284,83.6,83.6,83.57,83.57,2769
285,83.59,83.62,83.58,83.61,2629
286,83.59,83.61,83.58,83.58,1192
287,83.62,83.63,83.59,83.6,2032
288,83.6099,83.63,83.6,83.62,3150
289,83.595,83.6,83.57,83.59,2400
290,83.62,83.63,83.5901,83.6017,2694
291,83.6,83.63,83.59,83.62,4650
292,83.59,83.62,83.58,83.6,1700
293,83.59,83.62,83.58,83.58,3100
294,83.64,83.65,83.61,83.61,2900
295,83.68,83.68,83.64,83.65,2062
296,83.68,83.7,83.68,83.68,2180
297,83.69,83.72,83.68,83.69,2704
298,83.73,83.73,83.7,83.72,2665
299,83.7286,83.74,83.69,83.7,2300
300,83.74,83.74,83.69,83.71,1400
301,83.7,83.76,83.7,83.74,9900
302,83.75,83.75,83.72,83.73,1433
303,83.7,83.75,83.68,83.75,1581
304,83.685,83.7,83.68,83.695,1200
305,83.67,83.7,83.67,83.7,1725
306,83.64,83.685,83.64,83.685,950
307,83.64,83.645,83.63,83.645,1473
308,83.64,83.66,83.63,83.64,2100
309,83.63,83.63,83.6,83.63,3280
310,83.65,83.66,83.63,83.64,2107
311,83.67,83.67,83.62,83.63,1873
312,83.68,83.68,83.65,83.67,2104
313,83.66,83.7,83.65,83.68,2200
314,83.71,83.71,83.67,83.67,1500
315,83.77,83.77,83.71,83.71,1200
316,83.8,83.8,83.73,83.78,7117
317,83.78,83.808,83.77,83.808,1100
318,83.76,83.77,83.755,83.76,1859
319,83.75,83.76,83.74,83.76,1000
320,83.73,83.75,83.73,83.74,1800
321,83.74,83.75,83.71,83.72,5015
322,83.74,83.75,83.7306,83.7306,1400
323,83.76,83.779,83.74,83.74,900
324,83.76,83.765,83.75,83.76,1930
325,83.77,83.77,83.76,83.76,700
326,83.82,83.82,83.78,83.78,1995
327,83.8312,83.84,83.81,83.83,3168
328,83.83,83.84,83.82,83.84,900
329,83.83,83.84,83.82,83.83,1400
330,83.81,83.83,83.81,83.83,1568
331,83.83,83.8401,83.81,83.81,4250
332,83.79,83.84,83.79,83.83,6535
333,83.78,83.79,83.7603,83.78,2750
334,83.79,83.79,83.75,83.78,2825
335,83.76,83.77,83.76,83.77,600
336,83.73,83.74,83.73,83.74,1500
337,83.71,83.74,83.71,83.73,1438
338,83.77,83.77,83.72,83.72,3600
339,83.78,83.8,83.74,83.78,3655
340,83.78,83.78,83.78,83.78,300
341,83.79,83.8,83.79,83.8,1005
342,83.7802,83.81,83.78,83.8,5020
343,83.77,83.79,83.76,83.78,2578
344,83.72,83.75,83.72,83.75,2464
345,83.72,83.75,83.72,83.72,3641
346,83.76,83.77,83.73,83.73,3500
347,83.71,83.75,83.71,83.75,3484
348,83.72,83.72,83.7,83.71,2800
349,83.68,83.7,83.68,83.7,2125
350,83.66,83.685,83.6544,83.68,8507
351,83.64,83.66,83.64,83.66,6809
352,83.709,83.709,83.65,83.65,5978
353,83.75,83.75,83.7,83.7,3170
354,83.78,83.79,83.7401,83.7401,1851
355,83.75,83.78,83.75,83.78,2800
356,83.77,83.79,83.76,83.76,6407
357,83.75,83.76,83.74,83.76,2803
358,83.79,83.81,83.76,83.76,3105
359,83.81,83.8299,83.7968,83.8,1461
360,83.88,83.88,83.82,83.83,3313
361,83.86,83.87,83.8306,83.86,5510
362,83.84,83.88,83.82,83.88,7200
363,83.81,83.8406,83.8,83.83,3239
364,83.83,83.85,83.81,83.81,4390
365,83.82,83.84,83.82,83.84,1639
366,83.94,83.94,83.83,83.83,4600
367,83.93,83.94,83.89,83.94,4504
368,83.9,83.94,83.9,83.93,4868
369,83.89,83.9,83.88,83.9,7000
370,83.915,83.925,83.87,83.88,16593
371,83.89,83.91,83.88,83.91,6972
372,83.88,83.9,83.88,83.9,5356
373,83.88,83.89,83.87,83.88,5447
374,83.9099,83.91,83.88,83.88,3498
375,83.92,83.94,83.88,83.88,13551
376,83.93,83.94,83.91,83.92,6079
377,83.9,83.93,83.89,83.93,6775
378,83.91,83.91,83.88,83.89,3886
379,83.89,83.92,83.89,83.91,9494
380,83.9,83.9,83.87,83.885,7425
381,83.96,83.96,83.89,83.91,10305
382,83.94,83.96,83.94,83.95,6697
383,83.9399,83.945,83.905,83.945,12588
384,83.95,83.95,83.92,83.94,14506
385,83.95,83.97,83.94,83.96,15743
386,83.89,83.955,83.89,83.95,25745
387,83.889,83.895,83.88,83.895,10256
388,83.81,83.9,83.81,83.89,24212
389,83.77,83.83,83.76,83.8,31105
390,83.71,83.78,83.68,83.78,100449
