PPG,PPG Industries,Materials,8,Specialty Chemicals,26260968613,1569282
a1503322200,102.1,102.1,102.1,102.1,9684
1,101.9721,102.01,101.9721,102.01,1100
2,102.01,102.01,102.01,102.01,111
3,102.15,102.15,102.06,102.06,200
4,102.06,102.08,102.06,102.08,200
5,102.12,102.12,102.05,102.06,600
6,102.33,102.33,102.09,102.09,1739
7,102.26,102.34,102.26,102.33,1500
8,102.23,102.35,102.23,102.28,4000
9,102.25,102.27,102.08,102.27,3400
10,102.2,102.25,102.15,102.25,4205
11,102.25,102.3,102.25,102.26,1303
12,102.22,102.27,102.22,102.27,700
13,102.1764,102.23,102.1764,102.23,700
14,102.1,102.16,102.1,102.16,1000
15,101.97,102.1,101.965,102.065,1536
16,102.08,102.13,102.08,102.13,400
17,102.1,102.16,102.05,102.16,1000
18,102.02,102.035,102.02,102.035,300
19,102.16,102.16,102.07,102.08,1800
20,102.12,102.155,102.07,102.12,1900
21,102.14,102.14,102.1,102.12,400
22,102.05,102.1,102.05,102.1,1100
23,102.0208,102.026,102.0208,102.026,600
24,101.98,102.1,101.98,102.06,3500
26,102.06,102.085,102.04,102.08,2806
27,102.01,102.03,102.01,102.02,700
28,101.92,101.97,101.92,101.97,400
29,101.99,101.99,101.89,101.92,2150
30,101.965,101.965,101.965,101.965,400
31,101.85,101.97,101.85,101.96,2200
32,101.83,101.9,101.83,101.85,2563
33,101.755,101.79,101.72,101.79,8293
34,101.79,101.81,101.765,101.765,2268
35,101.75,101.7674,101.75,101.7674,550
36,101.78,101.79,101.78,101.79,200
37,101.805,101.81,101.79,101.795,3000
38,101.88,101.88,101.7875,101.79,2700
39,101.965,101.965,101.88,101.88,600
40,101.94,101.97,101.93,101.97,1695
41,101.975,101.975,101.94,101.94,1000
42,101.97,101.97,101.97,101.97,100
43,102.04,102.04,101.97,101.985,1721
44,102.04,102.04,102.04,102.04,100
45,101.97,101.995,101.97,101.9908,1900
47,101.96,101.98,101.95,101.98,900
48,101.93,101.97,101.93,101.97,700
49,101.99,102,101.93,101.93,2167
50,101.93,101.98,101.93,101.98,2700
51,101.91,101.91,101.91,101.91,196
52,101.82,101.895,101.82,101.895,1200
54,101.78,101.7905,101.78,101.7905,3000
55,101.77,101.78,101.75,101.78,1200
56,101.79,101.82,101.76,101.76,3185
57,101.91,101.91,101.79,101.79,1500
58,101.93,101.95,101.9,101.95,1200
59,101.91,101.91,101.91,101.91,100
60,102.05,102.05,101.94,101.94,1529
61,102.045,102.05,102,102.01,3451
62,102.01,102.07,102.01,102.06,1439
63,102,102.07,102,102.06,600
64,101.99,101.99,101.99,101.99,200
65,102,102.015,101.95,102.015,2650
66,101.97,101.99,101.94,101.99,2900
67,101.97,101.99,101.965,101.97,2900
68,101.99,101.99,101.95,101.98,1703
69,101.985,102.02,101.97,101.99,3643
70,101.95,101.99,101.95,101.99,1474
71,101.94,101.95,101.94,101.95,400
72,102.005,102.005,101.96,101.96,1700
73,102.015,102.04,101.9801,102.01,1000
74,101.98,102.015,101.98,102.015,200
75,102.03,102.03,101.98,101.98,1000
76,102.06,102.07,102.01,102.03,2400
77,102,102.03,102,102.03,2569
78,102.04,102.06,102.0199,102.0199,3606
79,102.06,102.08,102.04,102.05,3100
80,102.05,102.05,102.04,102.05,700
81,102.06,102.08,102.06,102.07,859
82,102.0689,102.11,102.06,102.06,7899
83,102.14,102.16,102.085,102.09,3315
84,102.12,102.125,102.12,102.125,200
85,102.15,102.15,102.121,102.121,205
86,102.16,102.18,102.15,102.15,2200
87,102.18,102.18,102.18,102.18,700
88,102.09,102.17,102.09,102.17,3100
89,102.07,102.12,102.07,102.1046,1758
90,102.06,102.09,102.03,102.03,2035
91,102.09,102.09,102.09,102.09,400
92,102.08,102.09,102.08,102.09,400
93,102.03,102.06,102.03,102.06,2117
94,102.039,102.039,102.02,102.02,315
95,102.04,102.04,102.04,102.04,1517
96,102.04,102.06,102.03,102.04,1778
97,102.07,102.09,102.02,102.04,2000
98,102.09,102.15,102.09,102.14,2062
100,102.118,102.118,102.1017,102.1017,577
101,102.16,102.16,102.11,102.11,2221
102,102.21,102.22,102.2,102.2,2255
103,102.25,102.25,102.2,102.2,1500
104,102.2,102.25,102.2,102.25,2452
105,102.29,102.29,102.17,102.18,1700
106,102.2,102.23,102.2,102.23,1567
107,102.23,102.26,102.2,102.2,1791
108,102.25,102.27,102.24,102.25,1550
109,102.23,102.23,102.23,102.23,100
110,102.22,102.24,102.19,102.23,1998
111,102.17,102.22,102.17,102.22,1000
112,102.16,102.16,102.16,102.16,400
113,102.16,102.21,102.16,102.2,1900
115,102.08,102.15,102.08,102.15,1000
117,102.19,102.21,102.125,102.125,4170
118,102.2,102.2,102.17,102.19,2200
119,102.19,102.21,102.19,102.21,1200
120,102.12,102.19,102.12,102.19,1300
121,102.1225,102.1225,102.1225,102.1225,429
122,102.19,102.19,102.14,102.14,1200
123,102.2,102.22,102.18,102.19,1460
124,102.2,102.2,102.18,102.2,600
125,102.196,102.2,102.16,102.1832,1455
126,102.185,102.185,102.185,102.185,100
127,102.16,102.2,102.16,102.2,2100
128,102.16,102.2,102.15,102.17,3641
129,102.1536,102.1536,102.1536,102.1536,100
130,102.2,102.2,102.18,102.18,600
131,102.19,102.235,102.19,102.21,1110
132,102.16,102.17,102.16,102.17,300
133,102.17,102.1955,102.17,102.1955,571
134,102.13,102.1859,102.13,102.1859,2969
136,102.15,102.18,102.15,102.16,2300
137,102.23,102.23,102.1718,102.1718,1124
138,102.17,102.21,102.17,102.21,800
139,102.23,102.25,102.22,102.22,1000
140,102.2,102.22,102.2,102.21,400
141,102.22,102.22,102.22,102.22,100
142,102.22,102.26,102.22,102.24,1400
143,102.2,102.24,102.2,102.23,3307
144,102.25,102.2525,102.22,102.22,1000
145,102.25,102.27,102.25,102.2525,800
146,102.19,102.27,102.19,102.27,6934
149,102.26,102.26,102.19,102.19,2350
150,102.2,102.26,102.2,102.26,1622
151,102.25,102.27,102.21,102.22,1722
152,102.22,102.25,102.22,102.25,1000
153,102.25,102.26,102.25,102.25,2200
154,102.23,102.26,102.23,102.245,2500
155,102.235,102.235,102.235,102.235,300
156,102.22,102.25,102.22,102.235,1100
157,102.23,102.24,102.22,102.22,1609
158,102.24,102.26,102.21,102.25,3965
159,102.26,102.26,102.25,102.25,1300
160,102.25,102.27,102.25,102.26,2400
161,102.24,102.26,102.23,102.24,3200
162,102.25,102.25,102.25,102.25,100
163,102.24,102.25,102.24,102.25,1590
164,102.24,102.24,102.22,102.23,2677
165,102.22,102.23,102.215,102.23,1845
166,102.25,102.26,102.24,102.24,3211
168,102.23,102.24,102.23,102.24,1083
169,102.25,102.26,102.24,102.24,2700
170,102.23,102.24,102.22,102.23,2210
171,102.23,102.23,102.23,102.23,100
172,102.22,102.22,102.22,102.22,100
173,102.25,102.25,102.24,102.24,2700
174,102.23,102.2525,102.21,102.25,4740
175,102.25,102.2625,102.24,102.24,4650
176,102.36,102.36,102.25,102.25,10761
177,102.36,102.4,102.34,102.36,2300
178,102.4,102.4,102.4,102.4,200
179,102.41,102.41,102.38,102.41,4811
180,102.415,102.415,102.415,102.415,100
181,102.42,102.42,102.4,102.4,650
183,102.42,102.42,102.39,102.39,1325
184,102.445,102.45,102.42,102.42,2000
185,102.45,102.45,102.44,102.441,801
186,102.43,102.44,102.41,102.44,2436
187,102.385,102.43,102.385,102.43,11502
188,102.385,102.41,102.38,102.385,7300
189,102.39,102.39,102.37,102.37,1300
190,102.39,102.4,102.39,102.39,1200
191,102.4,102.4,102.37,102.4,1600
192,102.37,102.4,102.37,102.37,400
193,102.37,102.37,102.37,102.37,100
195,102.37,102.37,102.37,102.37,100
196,102.37,102.4,102.37,102.385,800
197,102.44,102.44,102.385,102.385,5708
198,102.43,102.435,102.425,102.43,2500
199,102.42,102.45,102.42,102.43,2000
200,102.43,102.44,102.425,102.43,700
201,102.41,102.4425,102.39,102.43,3065
202,102.41,102.4211,102.41,102.4211,470
203,102.38,102.43,102.38,102.425,5100
204,102.389,102.389,102.389,102.389,400
205,102.34,102.41,102.34,102.38,3327
206,102.36,102.37,102.34,102.34,1100
207,102.35,102.36,102.35,102.36,700
208,102.32,102.356,102.32,102.33,2550
209,102.32,102.32,102.32,102.32,800
210,102.36,102.36,102.33,102.33,200
211,102.375,102.375,102.36,102.36,1000
212,102.37,102.3817,102.37,102.38,904
213,102.3966,102.4,102.385,102.39,1600
214,102.43,102.43,102.39,102.395,3943
215,102.425,102.44,102.4,102.415,2850
216,102.44,102.44,102.4,102.44,4000
217,102.42,102.45,102.42,102.44,1000
218,102.41,102.41,102.41,102.41,200
219,102.41,102.44,102.41,102.42,4990
220,102.415,102.415,102.415,102.415,100
221,102.4349,102.44,102.42,102.43,5800
222,102.43,102.44,102.42,102.43,6943
223,102.43,102.4332,102.43,102.4332,900
224,102.43,102.44,102.42,102.435,3131
225,102.41,102.44,102.41,102.43,4203
226,102.41,102.415,102.41,102.41,900
227,102.4192,102.4192,102.4192,102.4192,500
228,102.4288,102.44,102.42,102.42,2446
229,102.43,102.43,102.43,102.43,100
230,102.51,102.52,102.43,102.43,3357
231,102.51,102.51,102.51,102.51,100
232,102.49,102.49,102.49,102.49,100
234,102.49,102.52,102.49,102.49,4302
235,102.51,102.52,102.495,102.495,1371
236,102.5,102.51,102.5,102.51,600
237,102.51,102.51,102.51,102.51,700
238,102.51,102.52,102.51,102.52,1300
239,102.505,102.51,102.505,102.51,700
240,102.51,102.5275,102.495,102.505,5308
242,102.5132,102.5132,102.51,102.51,600
243,102.51,102.51,102.51,102.51,600
244,102.49,102.5086,102.485,102.5,4468
245,102.4932,102.5,102.48,102.5,1000
246,102.48,102.48,102.45,102.48,2500
247,102.47,102.47,102.47,102.47,200
248,102.42,102.46,102.42,102.46,6262
249,102.4532,102.4532,102.42,102.42,2300
250,102.45,102.4532,102.45,102.45,700
251,102.42,102.46,102.41,102.46,7809
252,102.42,102.42,102.42,102.42,100
253,102.44,102.44,102.41,102.418,1950
254,102.45,102.45,102.45,102.45,500
255,102.4599,102.46,102.44,102.45,7043
256,102.45,102.47,102.44,102.45,6243
257,102.44,102.46,102.44,102.45,5278
258,102.45,102.465,102.44,102.44,5959
259,102.52,102.52,102.45,102.4532,7875
260,102.49,102.51,102.49,102.51,1200
262,102.4815,102.5,102.47,102.48,2772
263,102.47,102.49,102.46,102.48,2750
264,102.465,102.465,102.465,102.465,100
265,102.46,102.46,102.46,102.46,100
266,102.45,102.46,102.45,102.46,2500
267,102.41,102.46,102.41,102.45,2296
268,102.4499,102.45,102.4399,102.4399,1100
269,102.4473,102.4473,102.4398,102.4398,1500
270,102.425,102.45,102.42,102.45,700
271,102.4399,102.4399,102.41,102.4298,2181
272,102.3899,102.4336,102.37,102.42,11653
273,102.4,102.43,102.39,102.4,8152
274,102.38,102.4,102.38,102.4,1800
275,102.4,102.41,102.3875,102.39,2396
276,102.4,102.41,102.39,102.4,7465
277,102.39,102.4,102.39,102.4,600
278,102.38,102.38,102.37,102.38,1093
279,102.4,102.4,102.38,102.38,900
280,102.41,102.4125,102.4,102.4,1659
281,102.41,102.45,102.39,102.41,5500
282,102.3858,102.4,102.37,102.4,1200
283,102.4,102.4,102.38,102.38,1600
285,102.37,102.4,102.37,102.4,2371
286,102.37,102.38,102.37,102.38,1100
287,102.365,102.37,102.35,102.37,10150
289,102.3684,102.3732,102.35,102.366,2874
290,102.37,102.37,102.36,102.365,1935
291,102.37,102.37,102.36,102.36,4650
292,102.37,102.37,102.36,102.37,2264
293,102.35,102.365,102.35,102.36,756
294,102.37,102.37,102.36,102.36,1300
295,102.3726,102.39,102.37,102.37,6765
296,102.37,102.38,102.36,102.37,4238
297,102.37,102.38,102.37,102.37,3002
298,102.36,102.37,102.36,102.37,400
299,102.365,102.3725,102.35,102.35,4666
300,102.3698,102.37,102.3698,102.37,1100
301,102.37,102.4,102.37,102.37,4317
302,102.37,102.37,102.37,102.37,200
303,102.36,102.3777,102.35,102.37,2678
304,102.3632,102.3632,102.35,102.36,1200
305,102.37,102.37,102.35,102.3632,4039
306,102.37,102.38,102.37,102.37,2150
307,102.34,102.36,102.34,102.36,3228
308,102.34,102.35,102.34,102.345,1700
309,102.34,102.34,102.34,102.34,200
310,102.34,102.35,102.33,102.345,4626
311,102.31,102.35,102.3,102.34,13268
312,102.32,102.32,102.29,102.3,5459
313,102.33,102.355,102.33,102.33,1610
314,102.35,102.35,102.333,102.333,2355
315,102.4,102.4,102.34,102.34,1500
316,102.41,102.42,102.4,102.4,8400
317,102.44,102.44,102.43,102.43,1452
318,102.39,102.43,102.38,102.43,6384
319,102.39,102.41,102.38,102.39,5790
320,102.38,102.38,102.37,102.38,700
321,102.395,102.4,102.38,102.38,1300
322,102.38,102.38,102.38,102.38,606
323,102.39,102.41,102.39,102.39,3607
324,102.4,102.4,102.4,102.4,200
325,102.39,102.39,102.38,102.39,670
326,102.39,102.42,102.39,102.4,6001
327,102.38,102.39,102.38,102.39,983
328,102.4,102.41,102.38,102.38,3821
329,102.39,102.41,102.39,102.4,3230
330,102.4,102.4,102.4,102.4,500
331,102.38,102.4,102.38,102.4,1951
332,102.36,102.38,102.36,102.37,670
333,102.38,102.38,102.36,102.36,1700
334,102.41,102.42,102.39,102.4,2972
335,102.39,102.42,102.385,102.4,5400
336,102.38,102.39,102.38,102.39,1300
337,102.37,102.3832,102.37,102.38,6050
338,102.36,102.38,102.35,102.38,4350
339,102.37,102.38,102.36,102.36,1841
340,102.37,102.37,102.36,102.36,3301
341,102.36,102.37,102.35,102.37,8453
342,102.35,102.37,102.35,102.3555,3776
343,102.37,102.37,102.35,102.35,1900
344,102.3366,102.35,102.33,102.35,3308
345,102.35,102.35,102.34,102.34,3000
346,102.37,102.3701,102.3453,102.3453,4142
347,102.3628,102.375,102.36,102.37,2518
348,102.3799,102.3799,102.35,102.3651,3136
349,102.36,102.37,102.36,102.37,1200
350,102.36,102.365,102.3447,102.35,8480
351,102.37,102.37,102.35,102.35,4298
352,102.41,102.43,102.37,102.37,3721
353,102.504,102.504,102.43,102.43,1071
354,102.49,102.51,102.48,102.51,1100
355,102.47,102.47,102.47,102.47,200
356,102.465,102.47,102.465,102.47,489
357,102.46,102.46,102.45,102.46,5020
358,102.47,102.48,102.46,102.47,3007
359,102.465,102.465,102.45,102.465,300
360,102.48,102.48,102.45,102.48,6722
361,102.48,102.49,102.47,102.47,3121
362,102.49,102.51,102.49,102.49,2400
363,102.46,102.49,102.45,102.49,4350
364,102.4466,102.46,102.44,102.46,2456
365,102.46,102.46,102.44,102.44,4168
366,102.47,102.49,102.47,102.47,2698
367,102.48,102.49,102.48,102.49,3296
368,102.49,102.5,102.475,102.475,2400
369,102.5,102.5,102.5,102.5,256
370,102.51,102.51,102.49,102.49,3322
371,102.51,102.53,102.5,102.51,7447
372,102.505,102.505,102.505,102.505,200
373,102.51,102.52,102.49,102.5,4726
374,102.46,102.49,102.46,102.49,3736
375,102.46,102.48,102.44,102.46,10333
376,102.49,102.5,102.45,102.45,8686
377,102.44,102.49,102.44,102.48,3649
378,102.42,102.44,102.42,102.44,2000
379,102.4,102.43,102.4,102.425,4715
380,102.395,102.4,102.39,102.39,9949
381,102.42,102.42,102.405,102.405,7294
382,102.42,102.42,102.41,102.42,2634
383,102.39,102.41,102.39,102.41,3500
384,102.41,102.41,102.39,102.4,9378
385,102.405,102.41,102.4,102.405,13510
386,102.43,102.43,102.4,102.405,9548
387,102.4,102.43,102.4,102.42,8796
388,102.39,102.41,102.375,102.41,15954
389,102.39,102.39,102.37,102.39,8706
390,102.37,102.43,102.36,102.39,34187
