EOG,EOG Resources,Energy,3,Oil & Gas Exploration & Production,55001238906,3352127
a1500989400,94.78,94.78,94.78,94.78,20631
1,94.79,94.86,94.47,94.8199,6895
2,94.4867,94.75,94.4867,94.75,1090
3,94.55,94.69,94.44,94.68,5417
4,94.52,94.75,94.52,94.55,9926
5,94.62,94.71,94.535,94.54,20835
6,94.65,94.78,94.59,94.62,26486
7,94.73,94.73,94.6,94.69,11872
8,94.79,94.81,94.71,94.74,16527
9,94.96,94.98,94.8,94.8,5867
10,94.76,94.95,94.76,94.94,16591
11,94.9411,94.98,94.73,94.73,4631
12,94.945,95,94.92,94.99,2580
13,94.94,94.98,94.88,94.96,5405
14,94.93,94.955,94.88,94.95,8455
15,94.79,95.02,94.79,94.94,16000
16,94.93,94.94,94.76,94.79,4647
17,94.93,94.96,94.91,94.94,7287
18,95.01,95.05,94.94,94.94,14195
19,95.01,95.03,94.93,95.01,8785
20,94.95,94.99,94.931,94.96,1855
21,94.855,94.9563,94.81,94.94,8010
22,94.86,94.92,94.83,94.85,4097
23,94.94,94.99,94.89,94.89,2220
24,95.01,95.01,94.91,94.93,9343
25,95.01,95.05,94.98,95.02,18316
26,94.99,95.02,94.93,95.02,12113
27,95.05,95.06,94.99,95.02,5500
28,95.07,95.12,95.04,95.06,6550
29,95.08,95.08,94.98,95.04,9248
30,95.04,95.07,95,95.06,12500
31,94.96,95.05,94.96,95.04,24934
32,95.05,95.05,94.93,94.93,9140
33,95.01,95.07,95,95.06,3015
34,95.03,95.08,95,95.02,4823
35,95.04,95.06,95,95.01,9281
36,94.95,95.04,94.91,95.04,9478
37,94.94,95.02,94.93,94.93,5100
38,94.88,94.93,94.88,94.92,3432
39,94.85,94.92,94.84,94.87,3585
40,94.92,94.94,94.82,94.84,6350
41,94.78,94.89,94.72,94.89,6100
42,94.77,94.77,94.7,94.77,3672
43,94.82,94.82,94.69,94.76,5830
44,94.87,94.87,94.77,94.8285,2446
45,94.92,94.92,94.88,94.88,1800
46,94.9468,94.96,94.89,94.89,2200
47,94.95,94.965,94.92,94.93,2550
48,94.96,95.02,94.955,94.955,2819
49,94.96,94.985,94.92,94.95,5240
50,94.99,95,94.95,94.96,2133
51,94.99,95.05,94.98,94.995,9058
52,94.99,95.06,94.99,95.02,3000
53,95.01,95.03,94.99,94.99,1800
54,95.01,95.04,94.99,94.99,1625
55,95.01,95.03,94.94,95,2458
56,95,95.05,95,95.0284,1940
57,95.06,95.065,95,95,2450
58,95.08,95.08,95,95.065,4322
59,95.01,95.05,95.01,95.05,1900
60,95.06,95.09,95,95.01,1900
61,95.08,95.09,95.05,95.0625,4260
62,95.13,95.13,95.07,95.08,10204
63,95.12,95.14,95.11,95.12,1200
64,95.06,95.1119,95.04,95.09,4173
65,95.12,95.12,95.045,95.045,4500
66,95.15,95.15,95.12,95.13,4300
67,95.115,95.13,95.09,95.13,1900
68,95.14,95.16,95.13,95.15,3100
69,95.14,95.17,95.12,95.15,7536
70,95.19,95.19,95.13,95.15,3599
71,95.19,95.2,95.17,95.17,2956
72,95.16,95.2,95.14,95.19,14675
73,95.19,95.2,95.16,95.18,1856
74,95.15,95.21,95.12,95.21,4188
75,95.18,95.21,95.13,95.17,3697
76,95.13,95.17,95.13,95.17,1700
77,95.15,95.18,95.11,95.13,3100
78,95.2004,95.2004,95.16,95.16,1800
79,95.13,95.25,95.13,95.24,3200
80,95.11,95.13,95.09,95.13,2600
81,95.07,95.1425,95.06,95.1425,2884
82,95.17,95.18,95.09,95.09,1314
83,95.17,95.18,95.12,95.15,4297
84,95.2079,95.2079,95.2079,95.2079,900
85,95.22,95.22,95.18,95.21,3203
86,95.29,95.29,95.21,95.21,3315
87,95.19,95.31,95.19,95.307,3327
88,95.13,95.19,95.1,95.19,3500
89,95.21,95.21,95.14,95.15,1440
90,95.2376,95.27,95.21,95.23,12550
91,95.255,95.33,95.24,95.25,8453
92,95.26,95.26,95.18,95.24,4900
93,95.24,95.26,95.21,95.2588,5385
94,95.15,95.23,95.15,95.2276,5300
95,95.06,95.17,95.06,95.15,5320
96,95.07,95.11,95.05,95.06,3725
97,95.0422,95.08,94.99,95.08,8350
98,95.04,95.09,95.02,95.03,3834
99,95.05,95.05,95,95.05,3868
100,95.07,95.11,95.02,95.06,7618
101,95.0546,95.0546,95.0546,95.0546,1000
102,95.1006,95.12,95.08,95.09,3058
103,95.11,95.15,95.1,95.1,5434
104,95.19,95.19,95.08,95.1,5189
105,95.14,95.24,95.14,95.18,8019
106,95.22,95.23,95.13,95.13,2057
107,95.2,95.23,95.191,95.2,2818
108,95.25,95.25,95.2,95.2,3705
109,95.13,95.255,95.13,95.255,3700
110,95.07,95.15,95.07,95.14,2700
111,95.03,95.05,95.03,95.05,2983
112,94.95,95.06,94.95,95.03,3333
113,94.93,94.99,94.93,94.94,5000
114,94.84,94.9205,94.84,94.92,2129
115,94.78,94.8,94.76,94.8,11300
116,94.86,94.89,94.8,94.8,4354
117,94.76,94.88,94.76,94.86,4648
118,94.71,94.77,94.69,94.77,3750
119,94.71,94.76,94.69,94.7,19120
120,94.83,94.83,94.72,94.72,2750
121,94.86,94.86,94.78,94.81,17535
122,94.82,94.89,94.8,94.87,4049
123,94.87,94.91,94.87,94.87,1667
124,94.935,94.99,94.87,94.87,4242
125,95.005,95.005,94.94,94.9545,2740
126,95.03,95.03,94.97,95.015,6075
127,95.02,95.0599,95.01,95.04,1432
128,95.0699,95.0699,95.01,95.03,4150
129,95.15,95.15,95.06,95.06,1650
130,95.0899,95.13,95.07,95.13,3760
131,95.1111,95.14,95.06,95.07,4156
132,95.12,95.15,95.09,95.14,4487
133,95.13,95.13,95.1,95.13,6007
134,95.06,95.13,95.05,95.13,6527
135,95.07,95.07,95.055,95.055,1811
136,94.98,95.06,94.97,95.06,4417
137,94.97,95,94.97,94.99,3829
138,95.04,95.04,94.98,95,6470
139,94.99,95.04,94.97,95.04,6681
140,95.01,95.01,94.98,94.98,2399
141,95,95.04,94.99,95.02,6380
142,95.0148,95.05,95,95.01,7324
143,95.05,95.07,95.01,95.01,16610
144,95.0301,95.07,95.02,95.05,2950
145,94.95,95.03,94.95,95.02,6707
146,95.02,95.02,94.93,94.95,9144
147,95.06,95.065,95.01,95.01,1555
148,95.08,95.09,95.065,95.065,1500
149,95.115,95.13,95.102,95.102,985
150,95.14,95.14,95.115,95.115,1500
151,95.14,95.16,95.12,95.15,700
152,95.1875,95.19,95.13,95.14,2066
153,95.21,95.24,95.21,95.21,1200
154,95.225,95.26,95.2,95.25,3700
155,95.24,95.24,95.21,95.21,4900
156,95.22,95.26,95.215,95.24,5329
157,95.25,95.27,95.22,95.23,52877
158,95.27,95.27,95.24,95.24,1600
159,95.25,95.28,95.25,95.26,1800
160,95.25,95.2799,95.2,95.2799,2156
161,95.24,95.27,95.24,95.27,400
162,95.28,95.28,95.26,95.26,304
163,95.2999,95.3,95.27,95.27,2140
164,95.37,95.37,95.3,95.3,3509
165,95.37,95.4,95.36,95.37,3832
166,95.36,95.37,95.33,95.36,6641
167,95.4,95.42,95.37,95.38,3590
168,95.41,95.42,95.36,95.4,3000
169,95.45,95.46,95.41,95.4133,4208
170,95.46,95.47,95.4544,95.46,900
171,95.46,95.46,95.41,95.46,1500
172,95.438,95.438,95.42,95.42,500
173,95.4099,95.43,95.4099,95.43,2150
174,95.54,95.54,95.41,95.41,9060
175,95.49,95.555,95.49,95.5428,2779
176,95.55,95.55,95.52,95.52,1900
177,95.6372,95.6372,95.57,95.57,3924
178,95.57,95.649,95.5544,95.649,10611
179,95.57,95.63,95.56,95.6,5870
180,95.57,95.59,95.57,95.59,900
181,95.55,95.57,95.53,95.56,1200
182,95.55,95.58,95.54,95.58,7000
183,95.59,95.605,95.57,95.57,1600
184,95.544,95.6,95.541,95.58,6200
185,95.57,95.58,95.56,95.58,1100
186,95.55,95.59,95.52,95.55,1600
187,95.5,95.5,95.5,95.5,300
188,95.47,95.55,95.45,95.53,2900
189,95.46,95.5,95.45,95.5,500
190,95.43,95.43,95.4,95.43,1800
191,95.39,95.42,95.39,95.42,2630
192,95.38,95.4,95.36,95.38,1860
193,95.3901,95.41,95.38,95.38,1103
194,95.4,95.42,95.38,95.41,900
195,95.37,95.41,95.37,95.4,1001
196,95.4,95.4,95.37,95.37,1425
197,95.41,95.44,95.4,95.4,13725
198,95.41,95.4385,95.37,95.4385,1806
199,95.3999,95.3999,95.39,95.39,200
200,95.36,95.37,95.33,95.36,3200
201,95.34,95.3499,95.33,95.34,624
202,95.39,95.4029,95.36,95.36,2000
203,95.37,95.38,95.36,95.38,701
204,95.33,95.36,95.32,95.36,1305
205,95.36,95.36,95.3,95.35,1906
206,95.31,95.37,95.31,95.36,1485
207,95.37,95.37,95.33,95.33,700
208,95.3,95.3555,95.3,95.3555,2999
209,95.31,95.32,95.3,95.32,1293
210,95.36,95.36,95.32,95.32,2400
211,95.39,95.3998,95.33,95.3487,2263
212,95.41,95.41,95.38,95.39,900
213,95.34,95.391,95.34,95.391,2427
214,95.37,95.37,95.34,95.34,1181
215,95.35,95.37,95.35,95.36,1801
216,95.41,95.41,95.32,95.37,3522
217,95.415,95.42,95.3714,95.39,2935
218,95.4,95.415,95.37,95.415,3422
219,95.35,95.42,95.34,95.4083,2633
220,95.335,95.35,95.335,95.34,800
221,95.25,95.32,95.25,95.32,7457
222,95.25,95.3,95.25,95.26,2600
223,95.25,95.2898,95.24,95.24,3473
224,95.25,95.27,95.23,95.25,6234
225,95.24,95.24,95.21,95.24,2997
226,95.23,95.25,95.23,95.24,6646
227,95.22,95.2513,95.213,95.24,3506
228,95.21,95.22,95.21,95.21,1672
229,95.23,95.23,95.2048,95.2048,600
230,95.17,95.23,95.17,95.23,1950
231,95.17,95.17,95.15,95.15,990
232,95.21,95.21,95.15,95.15,400
233,95.2,95.23,95.19,95.23,2034
234,95.18,95.19,95.15,95.18,1700
235,95.16,95.23,95.16,95.21,2600
236,95.12,95.1622,95.12,95.1622,2055
237,95.13,95.15,95.12,95.12,1203
239,95.14,95.18,95.13,95.13,2630
240,95.17,95.17,95.121,95.1304,1697
241,95.1,95.15,95.1,95.15,2521
242,95.1,95.1,95.09,95.09,700
244,95.14,95.14,95.12,95.12,400
245,95.14,95.17,95.14,95.14,2949
246,95.14,95.15,95.1,95.13,3233
247,95.0699,95.12,95.06,95.12,2547
248,95.08,95.08,95.04,95.0403,1195
249,95.09,95.09,95.06,95.06,712
250,95.01,95.05,95.01,95.05,2369
251,94.98,95.02,94.97,95,2900
252,94.99,94.99,94.95,94.97,1300
253,94.9606,94.98,94.96,94.96,341
254,95.01,95.01,95.01,95.01,100
255,94.9803,95.03,94.9803,95.0148,840
256,94.97,94.99,94.97,94.99,800
257,94.98,95.01,94.96,94.96,2400
258,94.94,94.98,94.94,94.97,2350
259,94.96,94.97,94.91,94.92,2200
260,95.02,95.02,94.97,94.97,800
261,95.02,95.04,95,95.01,14942
262,95,95.005,94.99,95,2000
263,95.02,95.04,94.98,94.98,3360
264,95.07,95.09,95.05,95.06,2725
265,95,95.07,94.99,95.06,6422
266,94.96,95.01,94.96,95.01,4200
267,94.94,94.99,94.94,94.97,1100
268,94.98,94.99,94.96,94.98,2100
269,94.97,95,94.97,94.99,1240
270,94.88,94.95,94.86,94.95,3000
271,94.84,94.86,94.83,94.86,636
272,94.8,94.82,94.8,94.82,4360
273,94.84,94.84,94.8,94.8,1755
274,94.83,94.83,94.8,94.82,3686
275,94.77,94.84,94.7443,94.83,4742
276,94.79,94.8,94.76,94.77,2532
277,94.72,94.81,94.72,94.81,4704
278,94.69,94.74,94.66,94.71,4314
279,94.66,94.68,94.6497,94.68,2292
280,94.67,94.67,94.67,94.67,275
281,94.64,94.73,94.64,94.68,4691
282,94.7,94.7,94.64,94.66,2960
283,94.72,94.72,94.68,94.72,300
284,94.68,94.72,94.64,94.72,2602
285,94.75,94.75,94.69,94.7,2417
286,94.72,94.76,94.72,94.76,1963
287,94.8,94.84,94.76,94.76,10626
288,94.86,94.9,94.84,94.84,1124
289,94.86,94.9,94.85,94.88,2100
290,94.91,94.91,94.83,94.85,4824
291,94.97,94.97,94.92,94.92,1700
292,94.94,94.95,94.9,94.95,2600
293,94.91,94.95,94.901,94.92,1250
294,94.88,94.91,94.85,94.91,3808
295,94.88,94.88,94.86,94.86,400
296,94.8401,94.89,94.8401,94.87,3198
297,94.86,94.91,94.83,94.84,5460
298,94.9,94.92,94.87,94.87,4344
299,94.88,94.92,94.86,94.89,5200
300,94.86,94.92,94.86,94.9,1600
301,94.92,94.95,94.86,94.86,6053
302,94.91,94.93,94.89,94.91,4226
303,94.96,94.974,94.9,94.9,12300
304,94.99,95.04,94.96,94.96,1900
305,95,95,94.95,94.99,26318
306,95.05,95.05,95.02,95.02,2615
307,95.05,95.075,95.04,95.04,9436
308,95.04,95.07,95.04,95.06,3593
309,95.045,95.045,95.015,95.02,5497
310,95.02,95.045,95.02,95.045,5712
311,95,95.015,94.99,95.015,3500
312,94.95,94.99,94.95,94.98,4949
313,94.93,94.96,94.93,94.96,1600
314,94.91,94.94,94.89,94.94,3300
315,94.95,94.95,94.89,94.92,6296
316,94.91,94.93,94.91,94.93,1600
317,94.93,94.94,94.9,94.905,10853
318,94.9,94.93,94.8987,94.93,3257
319,94.9,94.925,94.9,94.915,2800
320,94.885,94.9,94.88,94.89,2500
321,94.9,94.9,94.87,94.88,10000
322,94.93,94.93,94.89,94.9,8800
323,94.9132,94.94,94.9,94.94,3087
324,94.97,94.97,94.93,94.93,2310
325,95,95.0138,94.97,94.97,3701
326,95.01,95.01,95,95.01,2331
327,95.03,95.04,95,95.01,6437
328,95.08,95.1,95.04,95.04,5657
329,95.06,95.0799,95.06,95.07,2608
330,95.11,95.12,95.06,95.06,2298
331,95.09,95.13,95.08,95.11,5101
332,95.07,95.11,95.07,95.1,3921
333,95.045,95.07,95.03,95.07,12214
334,94.99,95.06,94.99,95.0474,6968
335,95.005,95.025,94.98,94.9899,12824
336,94.96,95.001,94.96,95,3770
337,94.93,94.95,94.92,94.95,1385
338,94.91,94.93,94.905,94.92,4900
339,94.92,94.93,94.9,94.91,5174
340,94.96,94.98,94.9296,94.9296,4650
341,94.92,94.9804,94.92,94.97,4222
342,94.9,94.93,94.9,94.93,9251
343,94.93,94.95,94.91,94.91,2688
344,94.96,94.96,94.92,94.93,1632
345,94.93,94.96,94.921,94.95,3192
346,94.94,94.95,94.93,94.93,2602
347,94.93,94.95,94.92,94.94,6754
348,94.98,94.98,94.92,94.92,4871
349,94.99,95,94.96,94.96,11400
350,94.95,94.995,94.95,94.99,9086
351,94.945,94.95,94.92,94.95,3086
352,94.96,94.96,94.93,94.93,12955
353,95.09,95.12,94.96,94.969,34965
354,95.11,95.11,95.08,95.09,1922
355,95.1056,95.11,95.02,95.11,6812
356,95.18,95.18,95.11,95.11,3447
357,95.14,95.19,95.13,95.19,5755
358,95.1961,95.1961,95.14,95.15,3124
359,95.19,95.24,95.19,95.19,3726
360,95.21,95.22,95.18,95.2,5384
361,95.22,95.2498,95.19,95.2,7083
362,95.18,95.21,95.18,95.21,4300
363,95.21,95.23,95.17,95.17,7200
364,95.18,95.22,95.151,95.21,4525
365,95.19,95.22,95.17,95.18,10062
366,95.15,95.205,95.1499,95.2,18639
367,95.145,95.16,95.13,95.14,5900
368,95.12,95.15,95.11,95.145,13020
369,95.08,95.11,95.08,95.11,3450
370,95.11,95.12,95.09,95.09,6242
371,95.08,95.11,95.07,95.11,8950
372,95.11,95.12,95.07,95.0799,12218
373,95.101,95.12,95.09,95.11,7767
374,95.115,95.12,95.11,95.11,6959
375,95.1,95.13,95.09,95.115,19994
376,95.05,95.1,95.04,95.1,8748
377,95.02,95.07,95,95.05,15867
378,95.01,95.02,94.99,95,6851
379,94.94,95.015,94.94,95.01,11866
380,94.97,94.97,94.93,94.94,10280
381,94.94,94.98,94.93,94.97,9410
382,94.92,94.95,94.92,94.945,11766
383,94.88,94.93,94.86,94.92,13344
384,94.87,94.91,94.87,94.87,10093
385,94.86,94.88,94.84,94.87,15523
386,94.77,94.86,94.76,94.84,12697
387,94.845,94.845,94.77,94.77,18756
388,94.89,94.89,94.84,94.84,17085
389,94.93,94.94,94.88,94.89,22710
390,94.88,94.94,94.85,94.94,76154
