PPG,PPG Industries,Materials,8,Specialty Chemicals,27218446533,1292355
a1500989400,106.2,106.2,106.2,106.2,17971
1,106.17,106.17,105.87,105.87,500
2,106.22,106.22,106.06,106.18,1400
3,106.45,106.45,106.22,106.22,3875
4,106.38,106.48,106.36,106.48,3150
5,106.3,106.4,106.2,106.4,2961
6,106.26,106.26,106.1,106.1,800
7,106.265,106.35,106.26,106.32,3065
8,106.27,106.31,106.22,106.265,500
9,106.05,106.26,106.05,106.22,2815
10,106.2,106.21,106.08,106.1226,4146
11,106.16,106.23,106.1,106.17,4070
12,106.13,106.13,106.04,106.08,3050
13,106.22,106.36,106.12,106.12,64216
14,106.08,106.33,106.04,106.25,4900
15,106.26,106.26,106.08,106.17,3887
16,106.3,106.34,106.21,106.21,32098
17,106.255,106.38,106.21,106.3,13550
18,106.18,106.25,106.18,106.24,3500
19,106.14,106.18,106.14,106.17,600
20,106.18,106.24,106.14,106.14,4918
21,106.29,106.29,106.17,106.2,2871
22,106.33,106.33,106.24,106.265,7033
23,106.27,106.335,106.24,106.335,3704
24,106.2,106.26,106.2,106.26,2300
25,106.2072,106.2072,106.2072,106.2072,100
26,106.23,106.25,106.22,106.22,1600
27,106.25,106.25,106.21,106.23,1915
28,106.22,106.25,106.2,106.225,3027
29,106.255,106.26,106.21,106.24,2600
30,106.32,106.32,106.24,106.27,3533
31,106.51,106.51,106.3301,106.34,1565
32,106.39,106.51,106.3701,106.5,4535
33,106.41,106.5,106.37,106.38,5099
34,106.48,106.48,106.45,106.45,800
35,106.56,106.56,106.49,106.49,900
36,106.555,106.555,106.5201,106.5201,400
37,106.6,106.63,106.57,106.59,5278
38,106.59,106.645,106.59,106.61,2700
39,106.67,106.67,106.61,106.63,12250
40,106.71,106.71,106.67,106.68,4493
41,106.73,106.73,106.73,106.73,300
42,106.7399,106.7399,106.7399,106.7399,200
43,106.7913,106.82,106.73,106.73,3000
44,106.83,106.84,106.7982,106.82,1700
45,106.83,106.845,106.77,106.83,5200
46,106.88,106.88,106.8,106.83,7558
47,106.94,106.94,106.89,106.89,4000
48,106.98,106.98,106.93,106.97,2803
49,107.01,107.02,106.97,106.97,4570
50,107.03,107.05,107.01,107.02,1253
51,107.09,107.09,107.05,107.05,3486
52,107.14,107.2,107.07,107.1,5616
53,107.2,107.205,107.17,107.17,1000
54,107.13,107.19,107.1,107.19,5796
55,107.11,107.11,107.07,107.1,2500
56,107.05,107.08,107.05,107.08,800
57,107.02,107.11,107.02,107.06,4200
58,106.95,107.02,106.81,107.02,5100
59,106.99,107,106.92,107,1640
60,107,107,106.93,106.93,300
61,106.98,107.01,106.93,106.97,15099
62,107.11,107.115,106.995,107.0153,2710
63,107.09,107.14,107.09,107.125,2900
64,107.07,107.1,107.02,107.08,6400
65,107.06,107.1,107.06,107.08,1000
66,107.09,107.09,107.02,107.045,1400
67,107.09,107.1,107.06,107.09,1900
68,107.04,107.11,107.04,107.095,5244
69,107.04,107.05,106.96,107.04,5610
70,107.03,107.04,107.015,107.015,1200
71,107.01,107.05,107.01,107.04,2341
72,107.02,107.03,107,107,1300
73,107.02,107.03,107.02,107.03,2601
74,107,107.03,107,107.01,2676
75,107.05,107.075,106.99,106.99,3100
76,107.02,107.02,107.02,107.02,300
77,107.01,107.02,107,107.01,900
78,107.01,107.04,107.01,107.02,3978
79,107.02,107.02,106.99,107,1267
80,107,107.04,107,107.02,3200
81,107.02,107.02,107,107,1500
82,107.01,107.02,106.98,107.02,4012
83,107.005,107.04,106.99,107.015,7480
84,106.99,107.01,106.97,107,3500
85,106.97,107,106.97,106.99,1100
86,106.96,106.97,106.94,106.97,2200
87,106.97,106.97,106.94,106.96,2500
88,106.98,106.98,106.95,106.96,1800
89,107.03,107.04,107,107,5449
90,107,107.03,106.99,107.02,2928
91,107.01,107.03,107,107.01,2903
92,107.02,107.02,106.99,107.01,2500
93,106.975,107.02,106.975,107.02,5110
94,107.005,107.01,106.99,106.99,1300
95,107.03,107.03,107.01,107.02,3200
96,107.03,107.03,107.02,107.02,500
97,106.9962,107.03,106.99,107.02,3207
98,107,107.02,106.99,106.99,2393
99,107,107.01,106.98,106.98,900
100,107,107.02,106.97,107.01,3600
101,107,107.0497,107,107.01,3114
102,106.98,107,106.97,107,2000
103,106.9846,106.9846,106.97,106.97,856
104,106.98,107.01,106.98,106.98,1800
105,106.965,106.965,106.95,106.95,400
106,106.98,106.98,106.95,106.965,1200
107,107.03,107.03,106.975,106.975,1200
108,107.01,107.04,107,107.04,2300
109,107.0044,107.0044,106.98,106.98,2638
110,107.04,107.05,107.01,107.01,1700
111,106.98,107.04,106.98,107.04,4133
112,106.965,106.98,106.95,106.98,1000
113,106.96,106.96,106.96,106.96,500
114,107.0155,107.02,106.98,106.98,2450
115,106.99,107.01,106.97,107.01,1850
116,107,107,107,107,100
117,106.96,106.96,106.93,106.96,2508
118,106.95,106.95,106.95,106.95,400
119,106.95,106.9538,106.94,106.95,1295
120,106.91,106.96,106.91,106.96,1912
121,106.91,106.91,106.88,106.9,1303
122,106.916,106.92,106.91,106.91,870
123,106.8,106.92,106.78,106.92,6100
124,106.84,106.84,106.79,106.79,2255
125,106.89,106.9,106.85,106.85,1550
126,106.85,106.905,106.82,106.89,3200
127,106.92,106.92,106.84,106.84,1800
128,106.83,106.93,106.83,106.93,2000
129,106.85,106.85,106.82,106.82,500
130,106.82,106.84,106.81,106.81,994
131,106.84,106.85,106.81,106.81,1685
132,106.81,106.84,106.77,106.84,2514
133,106.87,106.87,106.82,106.82,800
134,106.83,106.9,106.83,106.9,2715
135,106.95,106.95,106.83,106.83,5716
136,106.9,106.95,106.88,106.94,4445
137,106.9,106.9,106.9,106.9,100
138,106.93,106.93,106.88,106.88,2600
139,106.92,106.92,106.91,106.91,400
140,106.97,106.97,106.91,106.9286,1800
141,107.03,107.05,106.99,106.99,2300
142,106.96,107.05,106.96,107.04,4100
143,107,107.01,106.99,106.99,500
144,106.97,107,106.97,106.99,1800
145,106.95,106.96,106.95,106.96,200
146,106.98,106.98,106.95,106.95,300
147,106.95,106.95,106.95,106.95,400
148,107,107.02,106.96,106.9656,4080
149,107.01,107.03,107.01,107.03,500
150,107,107.04,107,107.03,4109
151,107.0197,107.03,106.99,106.99,846
152,107.03,107.035,107.02,107.02,3800
153,106.95,107.02,106.95,107.02,3350
154,106.99,107,106.94,106.95,3550
155,107.03,107.05,106.98,106.98,1000
156,106.99,107.035,106.99,107.035,1700
157,107,107,106.99,106.99,400
158,106.98,107.03,106.97,107.005,2300
159,107.01,107.02,106.98,107.01,1600
160,106.99,107,106.99,106.99,955
161,106.98,107,106.97,106.98,1100
162,106.91,107,106.91,107,2926
163,106.88,106.92,106.88,106.91,1878
164,106.88,106.9,106.86,106.87,2000
165,106.89,106.9,106.84,106.9,1998
166,106.91,106.91,106.91,106.91,200
167,106.9,106.93,106.88,106.91,1100
168,106.93,106.93,106.9,106.9,300
169,106.95,106.95,106.95,106.95,200
170,106.9,106.95,106.9,106.94,3321
171,106.92,106.92,106.9,106.9,700
172,106.88,106.94,106.88,106.91,2050
173,106.87,106.88,106.87,106.88,500
174,106.93,106.93,106.87,106.87,800
175,106.9,106.95,106.9,106.95,1799
176,106.87,106.89,106.84,106.89,800
177,106.91,106.91,106.87,106.87,1085
178,106.9246,106.93,106.89,106.89,5146
179,106.94,106.95,106.91,106.95,1000
180,106.97,106.98,106.95,106.95,1200
181,106.95,107.01,106.95,107,3300
182,107.01,107.01,106.9503,106.9503,1425
183,107.005,107.04,107,107.04,2600
184,106.97,106.99,106.97,106.99,15600
185,107.01,107.03,106.94,106.97,3700
186,107.03,107.03,107.02,107.02,300
188,107.03,107.03,107,107,400
189,107,107.03,106.97,107.03,53114
190,106.9885,107.01,106.96,106.985,3700
191,106.98,107,106.96,107,700
192,107.03,107.03,106.99,106.99,1600
193,107.025,107.04,107.01,107.01,6224
194,106.99,107.04,106.99,107.025,6281
195,107.03,107.03,106.96,106.96,2500
196,107.02,107.02,107.01,107.01,500
197,107.01,107.03,107.01,107.02,1999
198,107.04,107.04,107.025,107.03,3000
199,106.98,107.025,106.98,107.025,3780
200,106.99,107,106.99,107,1800
201,106.99,107.015,106.97,107,3054
202,107,107,106.99,106.99,500
203,107,107.01,106.99,107.01,1200
204,106.99,107.02,106.99,107.02,1330
205,106.99,107.02,106.99,107.01,500
206,106.9776,107.02,106.9776,107.01,2035
207,107.01,107.04,106.9603,106.9603,5719
208,106.99,107.025,106.98,107.025,2080
209,106.97,106.97,106.96,106.96,200
210,106.992,106.992,106.992,106.992,1100
211,106.99,106.99,106.97,106.97,1400
212,106.97,106.99,106.97,106.97,3100
213,107,107,106.985,106.985,900
214,106.98,106.99,106.96,106.99,2371
215,106.97,106.99,106.97,106.98,1000
216,106.99,107,106.97,106.98,35800
217,107.06,107.06,106.99,106.995,2868
218,107.09,107.09,107.07,107.07,1800
219,107.15,107.17,107.09,107.1,2913
220,107.2,107.2,107.16,107.17,1100
221,107.22,107.22,107.21,107.21,900
222,107.25,107.25,107.23,107.23,2100
223,107.24,107.26,107.24,107.26,1300
224,107.26,107.26,107.24,107.24,1614
225,107.29,107.29,107.26,107.26,1553
226,107.28,107.305,107.26,107.29,3436
227,107.25,107.27,107.2403,107.26,2870
228,107.26,107.26,107.24,107.24,800
229,107.28,107.29,107.25,107.26,95100
230,107.28,107.29,107.25,107.27,2639
231,107.35,107.36,107.275,107.275,4670
232,107.42,107.44,107.345,107.345,3438
233,107.38,107.44,107.37,107.43,5708
234,107.375,107.375,107.37,107.37,500
235,107.47,107.47,107.375,107.38,5050
236,107.4,107.46,107.4,107.46,2896
237,107.425,107.425,107.37,107.39,2400
238,107.43,107.46,107.41,107.42,5010
239,107.48,107.49,107.44,107.445,900
240,107.45,107.46,107.45,107.46,800
241,107.48,107.52,107.47,107.48,4383
242,107.49,107.5,107.47,107.48,2200
243,107.45,107.49,107.45,107.49,1500
244,107.305,107.47,107.29,107.46,8648
246,107.39,107.39,107.315,107.33,1954
247,107.36,107.38,107.36,107.38,1131
248,107.4063,107.42,107.37,107.38,2400
249,107.37,107.39,107.35,107.39,1800
250,107.44,107.44,107.39,107.39,1350
251,107.43,107.44,107.39,107.42,5580
252,107.4,107.45,107.4,107.45,5150
253,107.425,107.43,107.41,107.42,4727
254,107.08,107.43,107.06,107.425,11224
255,107.255,107.28,107.1,107.11,2700
256,107.23,107.23,107.22,107.23,900
257,107.2183,107.2183,107.2183,107.2183,200
258,107.21,107.21,107.13,107.2,3600
259,107.28,107.28,107.23,107.23,1157
260,107.19,107.29,107.19,107.29,2301
261,107.23,107.24,107.22,107.22,600
262,107.18,107.23,107.18,107.229,1106
263,107.239,107.239,107.2,107.2,1048
264,107.2526,107.28,107.23,107.24,17821
265,107.25,107.26,107.25,107.26,503
266,107.24,107.26,107.24,107.26,884
267,107.23,107.2527,107.23,107.2506,1405
268,107.21,107.24,107.21,107.23,1900
269,107.24,107.25,107.19,107.21,2830
270,107.26,107.27,107.23,107.24,2100
271,107.26,107.27,107.25,107.27,900
272,107.24,107.265,107.24,107.2598,2122
273,107.25,107.27,107.245,107.26,2800
274,107.265,107.27,107.26,107.26,2666
275,107.21,107.26,107.21,107.26,3322
276,107.21,107.22,107.19,107.19,1942
277,107.2489,107.2499,107.22,107.22,1424
278,107.24,107.27,107.24,107.25,2773
279,107.23,107.24,107.23,107.24,200
280,107.23,107.23,107.22,107.23,1410
281,107.23,107.27,107.23,107.23,3826
282,107.23,107.23,107.22,107.23,300
283,107.25,107.25,107.24,107.24,500
284,107.22,107.25,107.22,107.25,2600
285,107.25,107.26,107.23,107.23,2785
286,107.25,107.26,107.22,107.26,1800
287,107.26,107.26,107.24,107.25,2300
288,107.275,107.275,107.26,107.27,3507
289,107.21,107.275,107.21,107.27,3333
290,107.19,107.21,107.19,107.2,800
291,107.21,107.22,107.21,107.21,1437
292,107.24,107.255,107.21,107.22,2600
293,107.26,107.26,107.24,107.2452,2457
294,107.31,107.31,107.26,107.26,3000
295,107.32,107.32,107.32,107.32,100
296,107.32,107.33,107.31,107.31,3501
297,107.35,107.35,107.331,107.34,785
298,107.37,107.37,107.33,107.34,3832
299,107.26,107.365,107.25,107.36,7457
300,107.29,107.31,107.26,107.28,2896
301,107.32,107.34,107.31,107.31,1279
302,107.3,107.385,107.3,107.35,5364
303,107.34,107.35,107.325,107.34,900
304,107.347,107.36,107.33,107.33,900
305,107.33,107.36,107.33,107.36,200
306,107.33,107.39,107.33,107.36,8276
307,107.25,107.35,107.21,107.35,4818
309,107.25,107.27,107.24,107.24,2300
310,107.269,107.27,107.25,107.265,600
311,107.25,107.26,107.25,107.26,1603
312,107.26,107.26,107.25,107.25,5101
313,107.21,107.26,107.2,107.26,5130
314,107.25,107.25,107.21,107.22,3099
315,107.23,107.27,107.22,107.26,3398
316,107.22,107.24,107.21,107.21,1900
317,107.22,107.22,107.15,107.21,7077
318,107.22,107.235,107.22,107.235,1000
319,107.2241,107.2241,107.21,107.22,400
320,107.22,107.23,107.22,107.23,1200
321,107.23,107.24,107.22,107.24,1510
322,107.23,107.28,107.23,107.235,3050
323,107.19,107.24,107.16,107.24,6033
324,107.1799,107.19,107.17,107.19,1202
325,107.15,107.175,107.15,107.175,1701
326,107.185,107.185,107.155,107.155,2401
327,107.17,107.19,107.15,107.19,2268
328,107.17,107.22,107.17,107.2,3955
329,107.25,107.25,107.17,107.17,3131
330,107.24,107.27,107.22,107.255,2650
331,107.255,107.27,107.25,107.26,1950
332,107.25,107.27,107.24,107.27,2370
333,107.25,107.25,107.24,107.25,1200
334,107.25,107.25,107.23,107.24,2219
335,107.26,107.26,107.24,107.24,1700
336,107.23,107.28,107.23,107.27,5546
337,107.25,107.25,107.23,107.231,1600
338,107.22,107.25,107.22,107.25,2312
339,107.24,107.25,107.21,107.21,2050
340,107.2,107.22,107.2,107.22,1775
341,107.19,107.23,107.19,107.201,4156
342,107.19,107.21,107.17,107.17,1420
343,107.21,107.22,107.2,107.2,2405
344,107.21,107.23,107.21,107.22,2345
345,107.2,107.21,107.2,107.21,2159
346,107.2,107.2,107.2,107.2,300
347,107.21,107.21,107.2,107.2,300
348,107.17,107.2,107.17,107.2,5646
349,107.18,107.18,107.17,107.18,1100
350,107.15,107.175,107.15,107.17,4232
351,107.13,107.14,107.13,107.14,200
352,107.15,107.17,107.14,107.14,6549
353,107.11,107.14,107.11,107.14,2879
354,107.11,107.12,107.11,107.1134,1700
355,106.98,107.12,106.93,107.12,7595
356,107.018,107.018,106.97,106.9744,4936
357,106.96,107.01,106.96,107,2161
358,106.99,106.99,106.98,106.98,2300
359,107.01,107.04,107,107,2979
360,106.98,107.02,106.95,107.02,4281
361,106.97,107,106.97,106.98,1704
362,106.98,107.01,106.98,106.985,12443
363,106.97,106.98,106.96,106.98,3122
364,107.01,107.01,106.949,106.96,12968
365,107.03,107.03,107,107.01,6590
366,107.0245,107.03,107.015,107.015,2930
367,107.05,107.06,107.02,107.0244,3750
368,107.08,107.08,107.02,107.05,9400
369,107.0831,107.09,107.06,107.0868,5717
370,107.03,107.09,107.03,107.085,6946
371,107.002,107.015,107,107.01,3367
372,107.03,107.04,107.01,107.01,5548
373,107.1099,107.1099,107.03,107.03,6029
374,107.13,107.13,107.09,107.11,5358
375,107.11,107.15,107.09,107.14,8226
376,107.095,107.1,107.08,107.085,3805
377,107.14,107.14,107.09,107.09,8251
378,107.17,107.18,107.13,107.13,2897
379,107.22,107.23,107.1999,107.2,1972
380,107.23,107.245,107.21,107.225,6526
381,107.2,107.22,107.19,107.22,7253
382,107.23,107.23,107.19,107.2,5560
383,107.22,107.25,107.22,107.25,6386
384,107.26,107.26,107.22,107.22,6399
385,107.22,107.27,107.22,107.26,7464
386,107.18,107.21,107.17,107.21,6636
387,107.13,107.2,107.12,107.17,21924
388,107.1,107.16,107.07,107.14,14654
389,107.07,107.11,107.03,107.07,21134
390,107.08,107.12,107.04,107.07,26022
