EOG,EOG Resources,Energy,3,Oil & Gas Exploration & Production,54761574735,3280402
a1501248600,96.06,96.06,96.01,96.01,18143
1,96,96.195,96,96.08,2748
2,96,96,95.9,95.9,1000
3,96.11,96.11,95.975,96.04,3740
4,95.93,96.13,95.9,96.13,4395
5,96.06,96.07,95.97,95.97,1000
6,96.21,96.3,96.06,96.07,6375
7,96.31,96.41,96.18,96.21,10323
8,96.29,96.32,96.21,96.24,4300
9,96.31,96.41,96.295,96.3,3546
10,96.3,96.32,96.25,96.25,1750
11,96.16,96.32,96.16,96.32,1931
12,96.13,96.17,96.06,96.15,4800
13,96.12,96.16,96.04,96.08,4400
14,96.19,96.24,96.15,96.17,2400
15,96.22,96.28,96.15,96.15,6500
16,96.06,96.17,96.06,96.165,1400
17,96.04,96.09,96.01,96.04,2284
18,96.07,96.07,95.99,96.04,2500
19,96.25,96.25,96.06,96.09,6296
20,96.28,96.33,96.24,96.24,12450
21,96.23,96.36,96.23,96.3,8085
22,96.04,96.21,96.04,96.21,5208
23,96.01,96.07,95.94,96.07,9456
24,96.01,96.065,95.96,95.98,9600
25,96.08,96.13,96.05,96.09,4751
26,96.15,96.2,96.1,96.11,3025
27,96.095,96.18,96.095,96.18,1200
28,96.08,96.13,96.04,96.11,6700
29,96.05,96.12,96.04,96.09,3100
30,96.16,96.24,96.07,96.07,4846
31,96.24,96.25,96.14,96.14,16332
32,96.29,96.3,96.21,96.24,6700
33,96.29,96.349,96.26,96.26,4506
34,96.24,96.32,96.24,96.28,1900
35,96.33,96.356,96.2364,96.27,4377
36,96.3683,96.42,96.36,96.37,4600
37,96.46,96.5,96.39,96.41,5071
38,96.47,96.52,96.45,96.45,31166
39,96.5,96.6,96.5,96.515,4400
40,96.49,96.58,96.49,96.52,900
41,96.52,96.54,96.47,96.51,5550
42,96.5375,96.54,96.49,96.5,2627
43,96.62,96.64,96.57,96.58,2622
44,96.71,96.72,96.63,96.668,7720
45,96.6475,96.71,96.62,96.71,3700
46,96.71,96.71,96.62,96.68,1900
47,96.75,96.75,96.65,96.6926,6890
48,96.78,96.82,96.72,96.75,11046
49,96.74,96.77,96.705,96.76,4150
50,96.74,96.76,96.7,96.76,5100
51,96.77,96.8,96.71,96.74,14227
52,96.85,96.8875,96.79,96.8,3615
53,96.78,96.88,96.73,96.88,12730
54,96.72,96.8,96.71,96.8,5700
55,96.725,96.82,96.71,96.78,6795
56,96.85,96.86,96.71,96.74,6200
57,96.84,96.9,96.83,96.8559,4078
58,96.84,96.89,96.81,96.89,1944
59,96.75,96.835,96.6901,96.835,4300
60,96.63,96.7101,96.61,96.7101,7967
61,96.6065,96.71,96.6065,96.66,4742
62,96.58,96.64,96.55,96.64,2970
63,96.64,96.65,96.57,96.59,4700
64,96.67,96.79,96.64,96.65,5180
65,96.53,96.65,96.5,96.65,4211
66,96.545,96.61,96.54,96.55,4927
67,96.475,96.53,96.45,96.52,5094
68,96.53,96.58,96.46,96.485,1400
69,96.5,96.56,96.49,96.54,3300
70,96.39,96.46,96.39,96.46,500
71,96.5,96.54,96.385,96.39,5900
72,96.565,96.635,96.56,96.58,4500
73,96.49,96.55,96.48,96.55,8800
74,96.58,96.58,96.49,96.49,6639
75,96.6,96.64,96.6,96.63,2177
76,96.5,96.58,96.5,96.57,1891
77,96.49,96.49,96.45,96.49,2400
78,96.47,96.53,96.47,96.51,3971
79,96.44,96.48,96.44,96.45,1648
80,96.48,96.48,96.415,96.435,1900
81,96.38,96.46,96.36,96.46,2300
82,96.39,96.4,96.28,96.36,4050
83,96.33,96.42,96.33,96.41,1000
84,96.365,96.39,96.33,96.36,3284
85,96.33,96.38,96.33,96.35,2600
86,96.23,96.38,96.23,96.37,7072
87,96.26,96.26,96.19,96.22,6679
88,96.24,96.28,96.21,96.255,5100
89,96.235,96.27,96.21,96.23,8152
90,96.26,96.27,96.24,96.25,1600
91,96.26,96.27,96.21,96.24,3777
92,96.36,96.36,96.24,96.27,3700
93,96.3,96.35,96.2837,96.35,3000
94,96.25,96.34,96.25,96.3,4911
95,96.15,96.25,96.15,96.23,3850
96,96.1,96.14,96.06,96.14,3600
97,96.17,96.17,96.08,96.13,3934
98,96.04,96.205,96.02,96.175,5406
99,95.89,96.06,95.88,96.045,12500
100,95.88,95.96,95.88,95.92,2600
101,95.74,95.84,95.72,95.81,2619
102,95.745,95.78,95.68,95.73,7039
103,95.85,95.9,95.75,95.75,2873
104,95.94,95.94,95.86,95.86,1885
105,95.88,95.89,95.8,95.89,2900
106,95.97,95.97,95.905,95.905,2200
107,96.05,96.11,95.975,95.975,2704
108,96.0155,96.04,96,96,2600
109,96.01,96.085,96,96,2100
110,95.95,96.02,95.95,96.02,3842
111,95.93,95.97,95.89,95.92,4000
112,95.91,95.9496,95.89,95.9496,3967
113,96,96.02,95.92,95.92,4100
114,95.93,95.99,95.915,95.98,1800
115,95.87,95.94,95.87,95.94,3008
116,95.92,95.93,95.86,95.86,10931
117,95.9008,95.95,95.88,95.92,6234
118,95.8542,95.88,95.85,95.88,1810
119,95.81,95.85,95.8,95.83,5524
120,95.7283,95.82,95.72,95.82,7694
121,95.745,95.77,95.68,95.76,5075
122,95.67,95.77,95.61,95.77,8578
123,95.69,95.69,95.65,95.66,3329
124,95.73,95.73,95.675,95.675,2965
125,95.7,95.73,95.69,95.73,2378
126,95.61,95.7,95.58,95.7,4900
127,95.55,95.61,95.49,95.6,26106
128,95.6,95.64,95.56,95.56,2760
129,95.67,95.67,95.6,95.62,2600
130,95.72,95.72,95.67,95.67,1318
131,95.59,95.72,95.57,95.71,1200
132,95.68,95.68,95.585,95.6,4148
133,95.75,95.755,95.71,95.71,4522
134,95.79,95.82,95.75,95.77,3400
135,95.8,95.8,95.75,95.78,3220
136,95.825,95.88,95.81,95.82,3646
137,95.83,95.83,95.77,95.81,2273
138,95.815,95.85,95.81,95.81,2820
139,95.92,95.92,95.83,95.83,1989
140,95.81,95.9,95.775,95.88,2900
141,95.77,95.84,95.75,95.82,2507
142,95.77,95.8,95.74,95.78,1900
143,95.8,95.8,95.73,95.78,3100
144,95.88,95.88,95.77,95.82,4300
145,95.88,95.88,95.88,95.88,100
146,95.83,95.89,95.81,95.88,3728
147,95.755,95.83,95.72,95.79,4324
148,95.845,95.845,95.78,95.79,4535
149,95.87,95.87,95.79,95.83,4175
150,95.81,95.87,95.8,95.87,2350
151,95.77,95.86,95.77,95.83,9751
152,95.8,95.81,95.74,95.7683,2714
153,95.77,95.83,95.77,95.81,2100
154,95.82,95.83,95.79,95.79,4331
155,95.79,95.88,95.79,95.84,1932
156,95.77,95.82,95.77,95.81,2360
157,95.78,95.82,95.74,95.78,8807
158,95.7,95.78,95.7,95.78,2551
159,95.81,95.81,95.71,95.71,2400
160,95.76,95.82,95.75,95.81,7340
161,95.7997,95.8,95.74,95.78,6177
162,95.815,95.85,95.78,95.82,8650
163,95.85,95.85,95.83,95.845,600
164,95.82,95.86,95.78,95.82,5300
165,95.81,95.825,95.81,95.82,900
166,95.82,95.83,95.79,95.8,2048
167,95.73,95.83,95.73,95.83,3301
168,95.69,95.73,95.69,95.72,1700
169,95.688,95.72,95.66,95.695,15746
170,95.78,95.81,95.69,95.69,4592
171,95.785,95.82,95.75,95.78,2900
172,95.75,95.78,95.7275,95.76,1900
173,95.79,95.79,95.74,95.75,1000
174,95.81,95.81,95.761,95.79,600
175,95.775,95.82,95.75,95.82,1400
176,95.76,95.78,95.76,95.76,1100
177,95.79,95.82,95.775,95.775,8334
178,95.77,95.78,95.71,95.78,6521
179,95.7,95.76,95.69,95.76,3100
180,95.68,95.74,95.68,95.72,3900
181,95.68,95.68,95.64,95.68,2753
182,95.67,95.71,95.67,95.69,2595
183,95.635,95.65,95.62,95.63,2028
184,95.68,95.68,95.59,95.6,1300
185,95.68,95.7,95.66,95.66,2500
186,95.6,95.66,95.6,95.65,800
187,95.62,95.66,95.62,95.62,900
188,95.68,95.68,95.58,95.61,3641
189,95.65,95.68,95.64,95.68,1300
190,95.615,95.665,95.615,95.665,1800
191,95.65,95.66,95.5893,95.59,2950
192,95.66,95.69,95.65,95.65,900
194,95.68,95.68,95.665,95.67,600
195,95.715,95.76,95.71,95.71,2350
196,95.71,95.73,95.66,95.7,2448
197,95.73,95.73,95.71,95.71,500
198,95.7,95.7,95.7,95.7,100
199,95.68,95.72,95.68,95.715,400
200,95.77,95.77,95.7,95.7,1300
201,95.72,95.74,95.66,95.73,4750
202,95.68,95.735,95.68,95.735,900
203,95.61,95.66,95.61,95.65,2794
204,95.61,95.62,95.59,95.59,600
205,95.59,95.62,95.55,95.58,1063
206,95.55,95.59,95.54,95.57,1461
207,95.57,95.58,95.56,95.56,1100
208,95.535,95.55,95.52,95.55,2955
209,95.5,95.52,95.48,95.52,1925
210,95.5,95.5,95.47,95.47,900
211,95.45,95.48,95.44,95.48,1100
212,95.47,95.47,95.45,95.45,631
213,95.45,95.48,95.4,95.48,2301
214,95.425,95.425,95.41,95.42,400
215,95.5,95.5,95.43,95.46,1700
216,95.46,95.5,95.46,95.5,2100
217,95.51,95.53,95.47,95.47,1602
219,95.495,95.53,95.495,95.51,2500
220,95.56,95.56,95.51,95.51,2647
221,95.55,95.62,95.55,95.59,1652
222,95.505,95.56,95.5,95.56,2100
223,95.515,95.54,95.49,95.5,1906
224,95.52,95.52,95.47,95.49,2882
225,95.52,95.56,95.48,95.56,77000
226,95.5,95.56,95.48,95.48,4250
227,95.56,95.56,95.49,95.5,2000
228,95.54,95.57,95.54,95.57,400
229,95.53,95.56,95.51,95.55,1800
230,95.51,95.5399,95.5,95.51,801
231,95.47,95.51,95.47,95.49,7100
232,95.5,95.52,95.47,95.47,1300
233,95.505,95.54,95.47,95.52,2798
234,95.51,95.52,95.4944,95.51,1855
235,95.51,95.51,95.45,95.49,3282
236,95.5,95.51,95.46,95.5,222189
237,95.47,95.4926,95.47,95.48,1052
238,95.43,95.48,95.43,95.46,2518
239,95.5,95.51,95.4373,95.44,2553
240,95.47,95.55,95.47,95.53,1300
241,95.53,95.55,95.51,95.51,700
242,95.59,95.6,95.55,95.55,2400
243,95.61,95.66,95.57,95.6017,4100
244,95.61,95.61,95.58,95.595,1001
245,95.66,95.66,95.57,95.57,2000
246,95.64,95.64,95.6,95.64,2000
247,95.65,95.68,95.6,95.66,2650
248,95.67,95.67,95.63,95.63,600
249,95.56,95.655,95.56,95.64,2200
250,95.56,95.58,95.53,95.54,3600
251,95.52,95.54,95.51,95.54,1300
252,95.53,95.53,95.53,95.53,300
253,95.51,95.57,95.51,95.56,3000
254,95.54,95.54,95.49,95.51,1304
255,95.49,95.53,95.47,95.52,1500
256,95.46,95.48,95.44,95.47,2100
257,95.42,95.46,95.42,95.46,900
258,95.38,95.43,95.38,95.425,1200
259,95.38,95.41,95.37,95.38,1600
260,95.4,95.4,95.36,95.37,2438
261,95.41,95.44,95.41,95.42,5042
262,95.41,95.42,95.4,95.42,1000
263,95.39,95.46,95.39,95.42,3740
264,95.37,95.395,95.37,95.395,932
265,95.37,95.4,95.34,95.375,3612
266,95.38,95.38,95.38,95.38,100
267,95.37,95.4099,95.37,95.39,2227
268,95.3803,95.3803,95.38,95.38,500
269,95.3598,95.37,95.34,95.37,2357
270,95.31,95.3621,95.31,95.36,2459
271,95.2925,95.3275,95.28,95.3266,7265
272,95.2499,95.29,95.2499,95.29,1875
273,95.17,95.2401,95.16,95.2401,3267
274,95.16,95.175,95.15,95.15,1700
275,95.13,95.14,95.11,95.13,7002
276,95.19,95.3,95.15,95.16,7600
277,95.175,95.175,95.175,95.175,100
278,95.145,95.2,95.145,95.19,3500
279,95.1572,95.19,95.15,95.15,2500
280,95.17,95.19,95.16,95.1797,981
281,95.15,95.1772,95.15,95.17,3248
282,95.17,95.17,95.13,95.17,1800
283,95.1725,95.19,95.155,95.155,2200
284,95.19,95.2,95.19,95.19,1300
285,95.21,95.21,95.19,95.19,700
286,95.11,95.21,95.11,95.21,5221
287,95.16,95.16,95.12,95.12,3550
288,95.15,95.16,95.15,95.16,3900
289,95.19,95.21,95.17,95.17,1436
290,95.12,95.19,95.12,95.19,3000
291,95.14,95.15,95.125,95.125,1752
292,95.0621,95.14,95.06,95.14,4343
293,95.1,95.1,95.05,95.07,900
294,95.1295,95.14,95.1295,95.13,1200
295,95.14,95.18,95.11,95.12,1838
296,95.17,95.181,95.13,95.18,2896
297,95.16,95.1714,95.16,95.17,626
298,95.22,95.22,95.16,95.16,2351
299,95.239,95.25,95.21,95.22,4900
300,95.23,95.29,95.22,95.24,7050
301,95.18,95.26,95.18,95.25,16092
302,95.19,95.19,95.13,95.19,3800
303,95.19,95.23,95.18,95.18,8400
304,95.15,95.22,95.15,95.22,5809
305,95.19,95.21,95.16,95.16,2138
306,95.2,95.2,95.16,95.18,800
307,95.18,95.2,95.16,95.2,2050
308,95.14,95.19,95.14,95.16,2325
309,95.14,95.17,95.14,95.17,1950
310,95.13,95.15,95.12,95.145,5900
311,95.08,95.15,95.08,95.15,5658
312,95.06,95.09,95.04,95.09,2100
313,95.11,95.11,95.03,95.06,1867
314,95.13,95.13,95.08,95.105,2495
315,95.1,95.12,95.1,95.12,1300
316,95.0988,95.105,95.09,95.09,500
317,95.1848,95.19,95.11,95.11,2900
318,95.21,95.21,95.18,95.19,1436
319,95.26,95.26,95.18,95.211,9408
320,95.24,95.28,95.24,95.28,4900
321,95.265,95.28,95.25,95.26,7951
322,95.25,95.28,95.22,95.27,6662
323,95.28,95.32,95.24,95.25,7011
324,95.25,95.3,95.25,95.285,7533
325,95.25,95.26,95.23,95.25,3000
326,95.29,95.29,95.23,95.26,12514
327,95.29,95.315,95.28,95.31,6946
328,95.28,95.33,95.28,95.31,5600
329,95.25,95.28,95.24,95.27,4883
330,95.32,95.32,95.25,95.27,7939
331,95.275,95.31,95.265,95.3,4639
332,95.26,95.27,95.24,95.25,3443
333,95.25,95.3,95.25,95.27,6764
334,95.3,95.32,95.27,95.27,3289
335,95.275,95.3,95.26,95.29,2356
336,95.27,95.28,95.23,95.26,8162
337,95.28,95.28,95.25,95.25,2061
338,95.23,95.27,95.22,95.27,13044
339,95.32,95.32,95.26,95.26,5039
340,95.3,95.32,95.29,95.31,3400
341,95.31,95.32,95.3,95.31,5533
342,95.31,95.33,95.3,95.31,12542
343,95.34,95.37,95.3,95.31,5736
344,95.29,95.35,95.29,95.35,4575
345,95.31,95.32,95.28,95.3,10666
346,95.31,95.34,95.3,95.3,8535
347,95.32,95.36,95.31,95.34,7348
348,95.25,95.33,95.25,95.31,6659
349,95.3,95.32,95.25,95.27,9795
350,95.33,95.35,95.3,95.32,11590
351,95.21,95.33,95.21,95.32,5000
352,95.27,95.28,95.19,95.2,6317
353,95.27,95.27,95.23,95.26,3000
354,95.3,95.31,95.26,95.26,2642
355,95.34,95.37,95.3,95.32,5114
356,95.31,95.35,95.28,95.33,10420
357,95.3,95.3,95.22,95.29,4900
358,95.34,95.35,95.3,95.3,2500
359,95.335,95.35,95.33,95.3301,1700
360,95.34,95.34,95.32,95.34,2027
361,95.35,95.35,95.32,95.34,2881
362,95.35,95.38,95.34,95.36,4566
363,95.37,95.4,95.37,95.37,3253
364,95.37,95.38,95.36,95.38,1533
365,95.32,95.37,95.315,95.35,4897
366,95.355,95.36,95.31,95.315,4700
367,95.38,95.39,95.34,95.35,8320
368,95.34,95.4,95.34,95.39,5728
369,95.36,95.38,95.34,95.34,6079
370,95.36,95.39,95.33,95.36,5400
371,95.33,95.38,95.32,95.36,6101
372,95.42,95.44,95.33,95.34,11400
373,95.4,95.42,95.39,95.405,2910
374,95.42,95.42,95.395,95.4,3310
375,95.45,95.46,95.4,95.42,14163
376,95.49,95.49,95.43,95.43,9564
377,95.44,95.49,95.4,95.49,8235
378,95.44,95.45,95.43,95.44,3023
379,95.43,95.46,95.42,95.45,4918
380,95.48,95.5,95.4,95.42,7094
381,95.43,95.49,95.39,95.49,9414
382,95.41,95.43,95.41,95.425,7100
383,95.42,95.42,95.4,95.41,6509
384,95.42,95.425,95.395,95.42,6370
385,95.44,95.45,95.4,95.41,13862
386,95.44,95.47,95.44,95.445,13063
387,95.42,95.46,95.42,95.44,15493
388,95.4,95.42,95.37,95.41,12431
389,95.395,95.41,95.35,95.4,15164
390,95.37,95.43,95.36,95.39,29685
