EOG,EOG Resources,Energy,3,Oil & Gas Exploration & Production,52230182863,3327798
a1501853400,88.82,88.82,88.82,88.82,25486
1,88.74,89.05,88.62,89.01,10574
2,88.71,88.79,88.61,88.75,5081
3,88.7554,88.7554,88.56,88.7,8341
4,88.6,88.71,88.59,88.71,2258
5,88.6,88.7,88.56,88.57,4749
6,88.65,88.8462,88.6,88.6,7681
7,88.825,88.855,88.69,88.73,5750
8,88.94,88.94,88.825,88.85,9469
9,88.96,89.03,88.86,88.96,6918
10,89.14,89.14,89.02,89.02,10598
11,89.095,89.16,89.07,89.13,7449
12,89.2,89.225,89.1,89.1,4535
13,89.24,89.28,89.17,89.24,7175
14,89.29,89.29,89.22,89.2385,4275
15,89.07,89.24,89.05,89.24,4470
16,88.82,89.05,88.8,89.05,5731
17,88.84,88.91,88.72,88.83,17119
18,88.8525,88.87,88.8,88.85,5325
19,88.8,88.89,88.8,88.86,6339
20,88.85,88.87,88.74,88.83,19611
21,88.84,88.8735,88.82,88.85,8127
22,88.96,88.96,88.84,88.85,28030
23,89.02,89.04,88.92,88.92,7673
24,89,89.06,89,89,9601
25,88.925,89.01,88.89,89,13736
26,88.995,89.01,88.86,88.91,20356
27,88.9,89.005,88.89,88.98,10200
28,88.92,89.01,88.9,88.93,12800
29,88.83,88.93,88.83,88.93,13323
30,88.78,88.89,88.75,88.88,12156
31,88.65,88.779,88.65,88.75,13300
32,88.8,88.82,88.65,88.67,10126
33,88.79,88.8859,88.79,88.835,11014
34,88.785,88.82,88.77,88.79,16075
35,88.8045,88.82,88.78,88.8,13800
36,88.915,88.96,88.78,88.805,13322
37,88.97,89.02,88.8941,88.9299,7120
38,89.03,89.03,88.94,88.99,14033
39,89.05,89.06,89.02,89.03,11926
40,88.995,89.03,88.98,89.02,5400
41,88.98,89.04,88.97,88.995,4234
42,88.96,89,88.93,88.98,7347
43,88.87,88.9338,88.81,88.93,20055
44,88.96,88.99,88.845,88.88,27847
45,88.75,88.92,88.75,88.92,4700
46,88.82,88.84,88.75,88.75,2900
47,88.89,88.89,88.79,88.82,8349
48,88.945,88.97,88.861,88.88,5063
49,88.945,89,88.93,89,2628
50,88.99,89.03,88.945,88.945,5265
51,89.09,89.1,89,89,2638
52,89.07,89.12,89.03,89.07,3341
53,89.07,89.09,88.97,89.04,5830
54,89.185,89.22,89.09,89.1249,2485
55,89.21,89.22,89.17,89.205,1818
56,89.29,89.29,89.18,89.21,6873
57,89.34,89.36,89.29,89.34,2550
58,89.22,89.31,89.22,89.29,4913
59,89.29,89.3,89.24,89.27,7175
60,89.3,89.33,89.27,89.29,9235
61,89.33,89.36,89.24,89.29,14945
62,89.44,89.44,89.33,89.33,6314
63,89.55,89.55,89.41,89.43,24448
64,89.5,89.54,89.5,89.5,9400
65,89.405,89.5,89.39,89.5,12391
66,89.305,89.44,89.3,89.44,7354
67,89.36,89.36,89.28,89.28,44447
68,89.38,89.38,89.3,89.335,22117
69,89.31,89.38,89.28,89.36,3404
70,89.35,89.37,89.3,89.3,10950
71,89.36,89.4,89.335,89.35,12100
72,89.39,89.4,89.38,89.38,1750
73,89.37,89.38,89.355,89.38,2602
74,89.45,89.45,89.34,89.36,16797
75,89.51,89.51,89.435,89.45,6074
76,89.495,89.52,89.48,89.52,7133
77,89.54,89.55,89.495,89.51,6284
78,89.51,89.56,89.51,89.54,5176
79,89.525,89.55,89.5021,89.515,19364
80,89.66,89.68,89.53,89.54,10101
81,89.585,89.6699,89.585,89.655,5683
82,89.52,89.6,89.5,89.58,29417
83,89.46,89.51,89.45,89.49,4024
84,89.51,89.53,89.445,89.445,5299
85,89.59,89.59,89.49,89.49,9377
86,89.62,89.64,89.56,89.58,5558
87,89.71,89.74,89.63,89.63,12716
88,89.78,89.8,89.72,89.72,7210
89,89.77,89.77,89.7,89.71,9581
90,89.9,89.91,89.745,89.75,10555
91,89.94,89.94,89.85,89.87,5471
92,89.975,90.03,89.91,89.94,33760
93,90.0408,90.11,89.96,89.96,11190
94,90.0568,90.09,90.031,90.07,6240
95,90.17,90.17,90.055,90.055,6636
96,90.31,90.33,90.16,90.17,23207
97,90.3,90.33,90.28,90.29,15743
98,90.32,90.34,90.27,90.29,10061
99,90.44,90.44,90.315,90.33,24516
100,90.5,90.53,90.35,90.41,23336
101,90.45,90.52,90.39,90.5,44406
102,90.4,90.47,90.3919,90.43,12800
103,90.3261,90.39,90.3261,90.37,3932
104,90.32,90.33,90.23,90.29,15170
105,90.27,90.38,90.25,90.3093,10282
106,90.3,90.31,90.26,90.27,6645
107,90.295,90.32,90.29,90.3,6000
108,90.3,90.4,90.27,90.31,9081
109,90.225,90.32,90.2,90.27,15299
110,90.24,90.31,90.23,90.25,12258
111,90.23,90.29,90.13,90.21,17121
112,90.22,90.3,90.22,90.2263,20159
113,90.17,90.2,90.17,90.19,5347
114,90.15,90.21,90.125,90.18,9864
115,90.23,90.23,90.11,90.12,6675
116,90.28,90.28,90.22,90.22,2439
117,90.5,90.52,90.24,90.28,25281
118,90.49,90.52,90.46,90.4692,5580
119,90.53,90.55,90.46,90.47,5774
120,90.51,90.54,90.49,90.53,4683
121,90.445,90.53,90.445,90.53,3700
122,90.49,90.515,90.36,90.44,28977
123,90.49,90.51,90.47,90.49,4288
124,90.49,90.49,90.47,90.47,14900
125,90.53,90.54,90.5,90.5,4600
126,90.35,90.52,90.35,90.51,11320
127,90.35,90.38,90.35,90.37,1344
128,90.51,90.51,90.36,90.37,6750
129,90.48,90.52,90.47,90.519,9352
130,90.47,90.49,90.47,90.49,2322
131,90.55,90.55,90.49,90.5,6586
132,90.5,90.54,90.5,90.53,2894
133,90.54,90.54,90.5,90.5,15636
134,90.535,90.55,90.535,90.54,1400
135,90.62,90.62,90.52,90.54,5247
136,90.7,90.7,90.62,90.62,3800
137,90.65,90.6944,90.64,90.69,19325
138,90.5875,90.66,90.58,90.66,6077
139,90.58,90.6,90.58,90.5985,1400
140,90.57,90.6,90.54,90.58,31169
141,90.52,90.58,90.52,90.57,2800
142,90.48,90.515,90.42,90.515,7290
143,90.62,90.62,90.47,90.47,3767
144,90.595,90.62,90.59,90.61,1800
145,90.55,90.595,90.505,90.58,8552
146,90.66,90.685,90.56,90.56,2360
147,90.64,90.69,90.6,90.68,3601
148,90.66,90.69,90.655,90.66,2581
149,90.66,90.674,90.64,90.674,3700
150,90.68,90.7,90.63,90.645,8645
151,90.8168,90.82,90.695,90.7,7910
152,90.8392,90.86,90.8,90.8,6188
153,90.745,90.8,90.745,90.8,3625
154,90.75,90.78,90.73,90.73,3453
155,90.68,90.78,90.68,90.77,6300
156,90.63,90.71,90.63,90.69,12988
157,90.595,90.64,90.59,90.61,2500
158,90.6,90.62,90.58,90.62,2310
159,90.67,90.67,90.61,90.61,1500
160,90.68,90.69,90.665,90.67,2100
161,90.68,90.7,90.66,90.67,3540
162,90.58,90.7089,90.56,90.69,17100
163,90.5,90.59,90.5,90.57,4906
164,90.5125,90.5125,90.48,90.5,6864
165,90.5,90.52,90.5,90.51,3754
166,90.5,90.518,90.49,90.5,14562
167,90.58,90.61,90.5,90.51,5660
168,90.61,90.61,90.55,90.59,6325
169,90.73,90.73,90.61,90.61,4984
170,90.76,90.76,90.71,90.75,3038
171,90.8021,90.83,90.75,90.75,6000
172,90.88,90.88,90.81,90.815,7182
173,90.89,90.93,90.84,90.88,10912
174,90.98,90.98,90.89,90.895,8600
175,91.01,91.01,90.98,91,3104
176,91.09,91.1,91.01,91.02,7400
177,91.03,91.09,91.02,91.09,3661
178,90.992,91.04,90.9744,91.03,4950
179,90.98,91,90.96,90.9968,6345
180,91.04,91.04,90.9713,90.9713,2900
181,91.06,91.07,91.02,91.05,5350
182,91.18,91.24,91.06,91.06,13657
183,91.08,91.17,91.08,91.16,6300
184,91.06,91.09,91.06,91.07,1600
185,91.09,91.09,91,91.075,5150
186,91.095,91.115,91.08,91.09,3500
187,91.07,91.1,91.07,91.1,3750
188,91.08,91.1,91.0501,91.0602,5009
189,91.18,91.19,91.09,91.09,6298
190,91.1914,91.2,91.15,91.16,4500
191,91.21,91.22,91.18,91.19,2400
192,91.1,91.205,91.1,91.205,5800
193,91.04,91.12,91.04,91.1043,3450
194,91.06,91.06,91.01,91.04,7058
195,91.05,91.065,91.05,91.05,1600
196,91.02,91.055,91,91.055,5634
197,91.05,91.07,91.02,91.02,4012
198,91.05,91.06,91.04,91.05,4351
199,91.01,91.05,91.01,91.05,4010
200,90.965,91,90.96,90.99,3200
201,90.94,90.965,90.92,90.94,6357
202,90.9697,90.9697,90.92,90.92,2200
203,90.925,90.95,90.901,90.94,3700
204,90.93,90.93,90.9,90.9,2120
205,90.94,90.99,90.89,90.91,20701
206,90.8425,90.915,90.83,90.915,6820
207,90.78,90.84,90.77,90.84,4150
208,90.82,90.83,90.75,90.77,9333
209,90.73,90.79,90.7,90.78,1600
210,90.8499,90.85,90.7,90.715,13093
211,90.7,90.81,90.7,90.81,1801
212,90.69,90.72,90.66,90.71,3250
213,90.65,90.69,90.65,90.67,1200
214,90.7,90.74,90.68,90.69,4503
215,90.719,90.73,90.7,90.71,1600
216,90.72,90.74,90.71,90.72,1774
217,90.65,90.7,90.64,90.7,2900
218,90.64,90.67,90.63,90.63,2800
219,90.615,90.65,90.6,90.63,5710
220,90.62,90.655,90.61,90.61,3225
221,90.56,90.61,90.56,90.61,2300
222,90.6,90.62,90.59,90.6,3000
223,90.52,90.59,90.52,90.59,2352
224,90.485,90.54,90.485,90.52,2370
225,90.55,90.55,90.5,90.5,2420
226,90.68,90.68,90.57,90.57,6500
227,90.65,90.67,90.65,90.65,4653
228,90.69,90.69,90.63,90.64,3120
229,90.72,90.72,90.69,90.7,2572
230,90.705,90.725,90.7,90.72,1500
231,90.69,90.7,90.6797,90.69,2499
232,90.73,90.75,90.69,90.69,3200
233,90.69,90.75,90.69,90.74,1720
234,90.67,90.7,90.67,90.7,500
235,90.6,90.7,90.6,90.67,1799
236,90.57,90.59,90.54,90.59,1865
237,90.52,90.55,90.51,90.55,5938
238,90.5,90.5226,90.48,90.52,4028
239,90.51,90.55,90.495,90.495,2972
240,90.54,90.6,90.515,90.515,3500
241,90.44,90.52,90.44,90.505,2450
242,90.45,90.45,90.43,90.4486,941
243,90.4,90.43,90.4,90.43,900
244,90.43,90.45,90.39,90.39,6718
245,90.44,90.44,90.415,90.427,1000
246,90.43,90.46,90.41,90.46,605
247,90.43,90.45,90.4,90.4,2409
248,90.42,90.45,90.42,90.43,1000
249,90.39,90.42,90.39,90.4,2152
250,90.34,90.42,90.34,90.39,5600
251,90.32,90.34,90.3,90.34,4727
252,90.34,90.37,90.33,90.35,3910
253,90.3414,90.37,90.33,90.34,2949
254,90.37,90.37,90.29,90.33,6600
255,90.3501,90.365,90.3501,90.365,6350
256,90.39,90.39,90.335,90.38,5190
257,90.43,90.43,90.405,90.41,2515
258,90.4,90.409,90.4,90.405,450
259,90.36,90.43,90.36,90.41,4010
260,90.31,90.3652,90.305,90.3652,3400
261,90.32,90.32,90.295,90.31,2934
262,90.34,90.34,90.31,90.31,3054
263,90.31,90.35,90.31,90.35,1800
264,90.31,90.32,90.31,90.32,600
265,90.31,90.33,90.305,90.32,4500
266,90.3,90.31,90.29,90.31,1749
267,90.34,90.34,90.3,90.3,3294
268,90.35,90.35,90.32,90.34,1800
269,90.32,90.3576,90.32,90.3576,4435
270,90.3454,90.35,90.32,90.34,2050
271,90.3,90.33,90.3,90.32,3025
272,90.28,90.33,90.28,90.3,4400
273,90.24,90.28,90.24,90.28,2482
274,90.22,90.24,90.22,90.24,2949
275,90.19,90.23,90.19,90.23,918
276,90.22,90.22,90.1868,90.19,6500
277,90.23,90.26,90.23,90.23,1601
278,90.22,90.2288,90.21,90.2288,1100
279,90.17,90.21,90.17,90.21,3534
280,90.145,90.16,90.1201,90.16,12820
281,90.16,90.17,90.13,90.15,8504
282,90.15,90.15,90.15,90.15,1100
283,90.16,90.21,90.16,90.17,9459
284,90.18,90.21,90.16,90.16,2200
285,90.22,90.22,90.18,90.21,2604
286,90.15,90.2,90.15,90.2,13235
287,90.13,90.139,90.12,90.13,4229
288,90.12,90.14,90.12,90.13,1500
289,90.12,90.13,90.11,90.12,3278
290,90.1,90.129,90.08,90.12,5384
291,90.18,90.21,90.1,90.1003,5598
292,90.16,90.18,90.15,90.18,3250
293,90.17,90.2,90.15,90.17,7453
294,90.1715,90.19,90.1715,90.18,1885
295,90.14,90.17,90.13,90.17,6000
296,90.21,90.21,90.15,90.15,7586
297,90.22,90.22,90.185,90.185,5488
298,90.2258,90.25,90.2,90.22,12089
299,90.27,90.27,90.21,90.21,3893
300,90.19,90.24,90.18,90.24,2897
301,90.25,90.25,90.19,90.21,3410
302,90.235,90.28,90.21,90.24,9950
303,90.24,90.265,90.225,90.23,5084
304,90.21,90.25,90.21,90.24,5713
305,90.175,90.22,90.175,90.21,5869
306,90.16,90.2,90.16,90.19,2599
307,90.12,90.16,90.12,90.155,2850
308,90.14,90.14,90.1,90.115,3800
309,90.115,90.15,90.115,90.13,3628
310,90.18,90.18,90.13,90.13,3504
311,90.19,90.19,90.17,90.19,2599
312,90.17,90.195,90.15,90.19,2900
313,90.08,90.15,90.08,90.14,10921
314,90.1,90.12,90.08,90.08,6850
315,90.07,90.1,90.07,90.1,3216
316,90.07,90.09,90.06,90.08,4101
317,90.1071,90.13,90.075,90.08,6601
318,90.12,90.13,90.1,90.11,14024
319,90.13,90.15,90.11,90.13,9592
320,90.13,90.17,90.13,90.13,13475
321,90.16,90.16,90.11,90.13,9997
322,90.19,90.27,90.17,90.17,23088
323,90.2,90.2,90.18,90.18,4958
324,90.26,90.26,90.2,90.2,4800
325,90.33,90.34,90.24,90.27,3995
326,90.39,90.4,90.31,90.31,11472
327,90.45,90.45,90.39,90.39,13927
328,90.4327,90.44,90.42,90.44,1947
329,90.51,90.51,90.42,90.42,5425
330,90.452,90.49,90.45,90.49,1399
331,90.42,90.43,90.4,90.43,5324
332,90.48,90.48,90.43,90.43,2550
333,90.5,90.5,90.485,90.49,2000
334,90.53,90.53,90.49,90.49,4042
335,90.53,90.54,90.51,90.511,3550
336,90.51,90.52,90.5,90.52,3100
337,90.52,90.52,90.51,90.52,4499
338,90.46,90.52,90.43,90.51,5950
339,90.47,90.49,90.46,90.47,4776
340,90.5,90.51,90.47,90.4799,7786
341,90.49,90.53,90.49,90.5,17904
342,90.52,90.53,90.485,90.49,15179
343,90.52,90.53,90.52,90.52,1000
344,90.47,90.53,90.47,90.52,6060
345,90.5,90.51,90.47,90.47,5696
346,90.505,90.51,90.5,90.5,2010
347,90.58,90.58,90.505,90.505,5758
348,90.615,90.62,90.56,90.56,2653
349,90.69,90.69,90.62,90.63,1919
350,90.6631,90.71,90.6631,90.69,6440
351,90.63,90.66,90.63,90.65,4335
352,90.61,90.63,90.59,90.62,3865
353,90.59,90.6,90.59,90.59,6568
354,90.55,90.59,90.55,90.59,3173
355,90.59,90.5901,90.56,90.56,5312
356,90.5901,90.61,90.59,90.59,8239
357,90.57,90.59,90.56,90.59,4543
358,90.52,90.58,90.51,90.58,5846
359,90.51,90.53,90.51,90.53,3451
360,90.5101,90.52,90.51,90.51,6366
361,90.6,90.62,90.515,90.52,10646
362,90.57,90.6,90.55,90.6,7794
363,90.55,90.5601,90.54,90.56,5135
364,90.52,90.55,90.5,90.55,14339
365,90.515,90.54,90.505,90.51,11727
366,90.51,90.54,90.51,90.52,5571
367,90.48,90.53,90.455,90.52,22118
368,90.51,90.51,90.485,90.485,14132
369,90.51,90.52,90.49,90.51,18431
370,90.47,90.5301,90.455,90.51,15627
371,90.36,90.52,90.36,90.48,24763
372,90.39,90.4,90.35,90.36,8623
373,90.425,90.46,90.41,90.41,11791
374,90.45,90.45,90.42,90.4399,9282
375,90.44,90.45,90.43,90.445,16415
376,90.43,90.465,90.425,90.435,13222
377,90.44,90.44,90.43,90.435,7051
378,90.3575,90.44,90.34,90.435,17101
379,90.365,90.3861,90.36,90.37,7613
380,90.385,90.4,90.36,90.365,15952
381,90.44,90.46,90.385,90.385,13673
382,90.49,90.495,90.44,90.44,18704
383,90.48,90.53,90.47,90.49,15483
384,90.48,90.49,90.455,90.48,15363
385,90.49,90.5,90.48,90.485,10938
386,90.48,90.5,90.47,90.49,22926
387,90.48,90.5,90.47,90.48,14095
388,90.49,90.49,90.47,90.485,26745
389,90.52,90.53,90.48,90.49,32110
390,90.44,90.52,90.43,90.51,66032
