PPG,PPG Industries,Materials,8,Specialty Chemicals,26932943716,1397377
a1501853400,104.94,104.94,104.94,104.94,7981
1,105.0414,105.0414,104.76,104.76,203
4,105.035,105.0374,105.0266,105.0374,2921
5,104.86,105.05,104.86,105.04,2000
6,104.94,105.01,104.89,104.94,3908
7,104.99,104.99,104.88,104.9,1600
8,104.89,105.04,104.89,105,6240
9,104.8,104.88,104.8,104.88,700
10,104.93,104.93,104.92,104.92,200
11,104.83,104.93,104.83,104.91,1200
12,104.9,104.9,104.82,104.83,800
13,104.94,104.95,104.91,104.91,889
14,104.82,104.91,104.82,104.91,1058
15,104.83,104.83,104.8,104.8,200
16,104.91,104.91,104.86,104.88,700
17,104.87,104.8888,104.87,104.8888,225
18,104.88,104.88,104.84,104.84,300
19,104.94,104.94,104.89,104.89,800
20,104.97,104.98,104.93,104.93,693
21,105,105,104.94,104.94,1961
22,104.965,104.98,104.96,104.98,1500
23,105.02,105.02,105.02,105.02,100
24,104.99,105.02,104.99,105.01,659
25,105.03,105.03,104.98,104.98,1100
26,105.01,105.01,105,105.01,1282
27,104.9964,104.9964,104.97,104.98,500
28,104.9956,105.02,104.99,105.01,750
29,104.92,104.97,104.92,104.97,1900
30,104.94,104.985,104.9,104.92,3900
31,104.93,104.94,104.92,104.94,2100
32,104.94,104.94,104.92,104.92,1300
33,104.9,104.95,104.89,104.95,1533
34,104.97,104.97,104.88,104.88,700
35,105.05,105.05,104.96,104.96,2815
36,105.11,105.11,105.07,105.07,737
37,105.12,105.12,105.1,105.11,400
38,105.11,105.11,105.06,105.08,2400
39,105.02,105.1,105,105.1,2341
40,105,105.01,104.987,105.01,994
41,105.01,105.01,104.99,104.99,300
42,105.05,105.05,105.03,105.03,1900
43,105.02,105.04,105.02,105.03,1450
44,105.03,105.03,105.03,105.03,100
45,104.99,105.02,104.98,105.02,1500
46,105,105,104.98,104.99,1700
47,104.97,105.01,104.97,105.01,700
48,105.005,105.005,104.98,104.99,1026
49,104.98,104.99,104.98,104.99,600
50,104.98,104.98,104.97,104.98,600
51,104.87,104.98,104.87,104.98,5613
52,104.8776,104.88,104.87,104.88,720
53,104.8812,104.89,104.87,104.89,2216
54,104.88,104.88,104.83,104.88,2277
55,104.88,104.88,104.88,104.88,700
56,104.93,104.93,104.89,104.9,1200
57,104.91,104.93,104.88,104.93,9822
58,104.92,104.92,104.9,104.92,400
59,104.8625,104.89,104.85,104.89,1201
60,104.86,104.87,104.84,104.84,1120
61,104.87,104.87,104.84,104.84,1700
62,104.88,104.88,104.84,104.86,2505
63,104.87,104.9,104.87,104.89,500
64,104.86,104.87,104.84,104.87,900
65,104.88,104.88,104.84,104.84,800
66,104.87,104.87,104.87,104.87,400
67,104.87,104.87,104.87,104.87,600
69,104.84,104.8708,104.83,104.87,1977
71,104.85,104.85,104.81,104.82,11800
72,104.82,104.84,104.82,104.84,1900
73,104.81,104.81,104.78,104.81,2101
75,104.81,104.81,104.79,104.8,19900
76,104.86,104.87,104.83,104.83,1500
77,104.96,104.97,104.88,104.88,3350
78,104.9564,104.96,104.9564,104.96,650
79,104.95,104.95,104.95,104.95,200
80,104.96,104.96,104.94,104.95,1424
81,104.97,104.98,104.94,104.95,1798
82,104.82,104.97,104.82,104.97,3376
83,104.8015,104.82,104.8015,104.82,600
84,104.815,104.82,104.815,104.82,300
85,104.775,104.8,104.775,104.8,2011
86,104.78,104.78,104.78,104.78,100
87,104.76,104.76,104.76,104.76,800
88,104.76,104.76,104.76,104.76,200
89,104.73,104.75,104.73,104.75,2182
90,104.72,104.74,104.72,104.72,748
91,104.72,104.73,104.69,104.73,3000
92,104.67,104.71,104.67,104.7,1650
93,104.71,104.71,104.69,104.69,400
95,104.7,104.74,104.7,104.74,300
96,104.64,104.73,104.64,104.73,1700
97,104.64,104.64,104.64,104.64,100
98,104.615,104.63,104.6,104.61,1876
99,104.6,104.63,104.6,104.63,1168
100,104.66,104.66,104.6145,104.6145,1455
101,104.6,104.68,104.6,104.65,1644
103,104.555,104.6,104.52,104.57,3267
104,104.35,104.535,104.35,104.53,1639
105,104.45,104.48,104.36,104.37,2057
106,104.47,104.47,104.41,104.41,398
107,104.47,104.51,104.41,104.485,12700
108,104.45,104.47,104.44,104.44,300
109,104.41,104.44,104.39,104.43,1048
110,104.36,104.39,104.36,104.39,600
111,104.34,104.36,104.32,104.35,1510
112,104.31,104.35,104.31,104.32,2253
113,104.32,104.34,104.31,104.31,1218
115,104.37,104.415,104.34,104.37,2900
116,104.34,104.38,104.34,104.36,1900
117,104.34,104.36,104.34,104.36,400
118,104.385,104.385,104.35,104.35,750
119,104.4,104.42,104.385,104.385,911
120,104.405,104.42,104.4,104.42,944
121,104.47,104.47,104.42,104.42,3040
122,104.53,104.53,104.48,104.48,800
123,104.51,104.54,104.51,104.53,2080
124,104.5,104.51,104.5,104.51,812
125,104.54,104.545,104.48,104.49,3939
126,104.57,104.57,104.5301,104.55,640
127,104.6,104.62,104.6,104.62,600
128,104.63,104.63,104.6,104.61,400
129,104.7,104.7,104.613,104.613,546
130,104.67,104.67,104.64,104.64,900
131,104.65,104.66,104.63,104.66,2001
132,104.68,104.68,104.68,104.68,100
133,104.64,104.66,104.63,104.63,500
134,104.66,104.66,104.63,104.64,600
135,104.67,104.67,104.67,104.67,100
136,104.66,104.68,104.65,104.66,4386
137,104.68,104.68,104.68,104.68,100
138,104.645,104.66,104.64,104.66,1100
139,104.69,104.69,104.67,104.67,800
140,104.66,104.68,104.65,104.68,2300
141,104.58,104.64,104.58,104.64,500
142,104.58,104.58,104.58,104.58,300
143,104.61,104.61,104.53,104.59,5954
145,104.53,104.54,104.51,104.54,3600
146,104.52,104.52,104.52,104.52,500
147,104.46,104.55,104.46,104.55,4379
148,104.45,104.45,104.45,104.45,200
150,104.46,104.46,104.45,104.45,1611
151,104.45,104.47,104.45,104.47,600
152,104.47,104.47,104.47,104.47,682
153,104.49,104.49,104.47,104.47,300
154,104.4999,104.4999,104.4999,104.4999,125
155,104.5,104.51,104.49,104.5,2129
157,104.53,104.53,104.52,104.52,900
158,104.52,104.56,104.51,104.51,3207
159,104.56,104.56,104.53,104.53,800
160,104.54,104.56,104.54,104.56,1200
161,104.58,104.58,104.54,104.54,700
162,104.59,104.59,104.59,104.59,110
163,104.62,104.62,104.582,104.6,1000
165,104.66,104.66,104.64,104.64,1802
166,104.67,104.67,104.64,104.66,2150
167,104.665,104.665,104.665,104.665,100
168,104.66,104.67,104.65,104.67,1720
169,104.65,104.66,104.65,104.65,900
170,104.65,104.65,104.65,104.65,1414
171,104.6631,104.67,104.66,104.66,800
172,104.66,104.68,104.66,104.68,1530
173,104.66,104.66,104.66,104.66,651
174,104.64,104.65,104.63,104.65,1510
175,104.63,104.63,104.63,104.63,230
176,104.65,104.67,104.63,104.63,1496
177,104.66,104.66,104.66,104.66,200
179,104.64,104.64,104.64,104.64,200
180,104.64,104.64,104.635,104.64,800
181,104.67,104.67,104.64,104.64,300
182,104.68,104.68,104.66,104.66,600
183,104.67,104.67,104.67,104.67,400
184,104.66,104.68,104.66,104.68,800
185,104.67,104.67,104.66,104.665,401
186,104.67,104.67,104.67,104.67,100
187,104.65,104.67,104.65,104.67,4022
188,104.67,104.67,104.65,104.66,900
189,104.66,104.6966,104.66,104.67,4568
190,104.65,104.65,104.65,104.65,100
191,104.63,104.65,104.63,104.65,900
192,104.64,104.64,104.62,104.63,300
193,104.64,104.64,104.64,104.64,615
194,104.66,104.66,104.64,104.64,1100
195,104.64,104.64,104.64,104.64,400
196,104.6468,104.6468,104.6432,104.6432,1549
197,104.63,104.665,104.62,104.66,6259
198,104.61,104.675,104.59,104.61,4500
199,104.66,104.66,104.59,104.59,3400
203,104.66,104.66,104.64,104.65,813
204,104.65,104.66,104.64,104.66,1740
205,104.65,104.65,104.65,104.65,600
206,104.66,104.66,104.65,104.65,1100
207,104.7,104.7,104.64,104.65,1903
208,104.75,104.75,104.71,104.71,3686
209,104.7325,104.74,104.7325,104.74,800
210,104.72,104.77,104.72,104.73,2851
211,104.73,104.73,104.72,104.72,900
212,104.69,104.71,104.68,104.71,1729
213,104.71,104.72,104.7,104.7,1305
214,104.73,104.73,104.7,104.72,2300
215,104.72,104.73,104.7152,104.73,853
216,104.69,104.73,104.69,104.7,2586
217,104.72,104.72,104.695,104.7,1100
218,104.71,104.73,104.69,104.72,1300
219,104.72,104.72,104.7,104.7,1570
220,104.72,104.74,104.69,104.71,1800
221,104.76,104.76,104.69,104.69,1700
222,104.8,104.8,104.74,104.75,1662
223,104.85,104.85,104.785,104.785,1100
224,104.87,104.87,104.85,104.87,900
225,104.92,104.93,104.87,104.87,2390
226,104.91,104.91,104.9,104.9,1400
227,104.9084,104.9084,104.9084,104.9084,103
228,104.9091,104.9091,104.9091,104.9091,525
229,104.93,104.93,104.93,104.93,1300
230,104.93,104.96,104.93,104.96,1802
231,104.92,104.93,104.92,104.93,1000
232,104.96,104.96,104.93,104.94,4051
233,104.96,104.97,104.96,104.97,1873
234,104.96,104.96,104.96,104.96,100
236,104.9648,104.9648,104.9648,104.9648,150
237,104.99,104.99,104.97,104.97,2264
238,104.99,104.99,104.98,104.98,300
239,105.02,105.02,104.99,104.99,2400
240,105.0198,105.0198,105.005,105.005,390
241,105.01,105.02,105,105.02,2003
242,105.025,105.04,105.02,105.0296,730
243,105.02,105.04,105.02,105.04,1300
244,105.04,105.04,105.03,105.04,800
245,105.08,105.08,105.03,105.03,3200
246,105.09,105.1025,105.09,105.1,1500
247,105.08,105.09,105.08,105.09,1400
248,105.1,105.1,105.07,105.07,4921
249,105.085,105.09,105.08,105.08,500
250,105.04,105.085,105.04,105.08,1300
251,105.0332,105.0332,105.0332,105.0332,206
252,105.03,105.03,105,105.0134,2821
253,105.03,105.03,105.03,105.03,200
254,105.03,105.03,105.02,105.02,200
255,105.04,105.04,105.02,105.02,2156
256,105.095,105.11,105.05,105.05,2566
258,105.095,105.1,105.08,105.08,1650
260,105.07,105.09,105.07,105.09,1000
261,105.07,105.07,105.06,105.07,500
262,105.05,105.05,105.05,105.05,100
263,105.07,105.08,105.045,105.05,2530
264,105.0401,105.0797,105.0401,105.0797,1099
266,105.06,105.08,105.04,105.04,2401
267,105.06,105.06,105.05,105.06,600
268,105.06,105.06,105.06,105.06,100
269,105.05,105.05,105.05,105.05,395
270,105.07,105.07,105.06,105.06,2201
271,105.07,105.08,105.07,105.07,2000
272,105.08,105.08,105.06,105.07,1100
273,105.095,105.095,105.095,105.095,100
274,105.06,105.08,105.06,105.08,1497
275,105.11,105.11,105.08,105.08,1100
276,105.11,105.14,105.1,105.11,4139
277,105.15,105.15,105.1173,105.1173,1589
278,105.12,105.16,105.12,105.16,1862
279,105.13,105.13,105.09,105.1,1142
280,105.09,105.12,105.09,105.12,1000
281,105.08,105.09,105.08,105.08,1200
282,105.08,105.08,105.08,105.08,200
283,105.1,105.1,105.09,105.095,700
284,105.11,105.12,105.08,105.1,1600
286,105.17,105.17,105.13,105.13,2436
287,105.2199,105.2199,105.185,105.19,1895
288,105.2,105.22,105.2,105.2101,1733
289,105.22,105.22,105.2,105.2,300
290,105.22,105.23,105.2,105.23,600
291,105.21,105.22,105.2,105.22,2100
292,105.25,105.25,105.22,105.22,1240
293,105.25,105.27,105.24,105.24,1000
294,105.25,105.25,105.25,105.25,100
295,105.24,105.27,105.24,105.25,2363
296,105.28,105.28,105.25,105.25,1915
297,105.259,105.259,105.259,105.259,100
298,105.26,105.265,105.24,105.25,2400
299,105.28,105.28,105.279,105.28,400
300,105.29,105.29,105.28,105.28,609
301,105.28,105.28,105.275,105.28,1400
302,105.29,105.29,105.28,105.28,400
303,105.29,105.29,105.28,105.29,800
304,105.28,105.29,105.275,105.29,1400
305,105.28,105.28,105.28,105.28,100
306,105.27,105.2725,105.27,105.27,686
307,105.27,105.27,105.27,105.27,800
308,105.2695,105.27,105.2695,105.27,550
309,105.25,105.27,105.25,105.26,1978
311,105.21,105.25,105.21,105.25,1493
312,105.24,105.24,105.22,105.22,2200
313,105.24,105.24,105.24,105.24,400
314,105.25,105.25,105.24,105.24,550
315,105.26,105.26,105.26,105.26,351
316,105.25,105.27,105.25,105.27,1010
317,105.26,105.26,105.26,105.26,600
318,105.22,105.26,105.22,105.26,1500
319,105.19,105.22,105.19,105.22,500
320,105.1998,105.1998,105.19,105.19,950
321,105.21,105.21,105.2,105.2,1040
322,105.23,105.23,105.2,105.2,1300
323,105.24,105.24,105.22,105.2352,1683
325,105.23,105.245,105.23,105.23,1020
326,105.24,105.24,105.23,105.23,200
327,105.23,105.24,105.23,105.24,900
328,105.23,105.24,105.22,105.235,998
329,105.23,105.23,105.23,105.23,751
330,105.24,105.245,105.23,105.23,500
331,105.21,105.24,105.21,105.24,1856
332,105.19,105.215,105.18,105.215,1030
333,105.19,105.19,105.18,105.18,1400
334,105.12,105.19,105.12,105.19,2600
336,105.03,105.1,105,105.1,3585
337,105.01,105.04,105.01,105.025,400
338,105.04,105.05,105.01,105.01,2135
339,105.07,105.07,105.05,105.05,1200
340,105.0898,105.09,105.07,105.07,2092
341,105.08,105.09,105.08,105.09,700
342,105.13,105.13,105.09,105.09,1900
343,105.13,105.13,105.1164,105.12,1181
344,105.13,105.13,105.13,105.13,400
345,105.14,105.14,105.12,105.13,1700
346,105.1599,105.16,105.14,105.14,1230
347,105.165,105.17,105.16,105.16,1745
348,105.16,105.17,105.16,105.16,1344
349,105.1615,105.165,105.15,105.165,1401
350,105.125,105.16,105.125,105.14,3166
351,105.06,105.11,105.05,105.11,1300
352,105.08,105.08,105.06,105.06,1300
353,105.07,105.08,105.07,105.08,500
354,105.09,105.09,105.08,105.08,400
355,105.09,105.09,105.085,105.085,500
356,105.09,105.0999,105.0872,105.09,1033
357,105.08,105.085,105.07,105.08,1398
358,105.07,105.08,105.07,105.08,1000
359,105.07,105.08,105.06,105.06,1903
361,105.07,105.07,105.06,105.07,900
362,105.065,105.08,105.065,105.07,3415
363,105.07,105.07,105.06,105.06,1700
364,105.04,105.07,105.02,105.07,3431
365,105.03,105.04,105.03,105.04,400
366,105.04,105.05,105.03,105.03,2748
367,105.0584,105.07,105.05,105.06,1062
368,105.04,105.07,105.04,105.06,1330
369,105.07,105.07,105.05,105.05,1600
370,105.08,105.095,105.07,105.07,2532
371,105.08,105.08,105.07,105.08,1111
372,105.09,105.09,105.085,105.085,656
373,105.075,105.09,105.07,105.085,2400
374,105.09,105.095,105.07,105.07,2269
375,105.09,105.1,105.06,105.08,4212
376,105.14,105.15,105.09,105.11,4099
378,105.15,105.16,105.14,105.14,4529
379,105.14,105.15,105.14,105.15,1500
380,105.1,105.14,105.08,105.13,3896
381,105.1,105.1,105.09,105.1,2502
382,105.11,105.11,105.1,105.1,2500
383,105.1011,105.12,105.1011,105.115,1858
384,105.06,105.11,105.06,105.11,3162
385,105.07,105.07,105.06,105.07,3646
386,105.07,105.07,105.065,105.07,4331
387,105.07,105.07,105.06,105.07,10731
388,105.07,105.07,105.06,105.06,8775
389,105.05,105.07,105.05,105.065,12500
390,105,105.06,104.99,105.0599,41984
