EOG,EOG Resources,Energy,3,Oil & Gas Exploration & Production,52963924378,3476619
a1499952600,90.37,90.37,90.37,90.37,17919
1,90.5762,90.5762,90.37,90.38,1435
2,90.58,90.61,90.53,90.53,1664
3,90.49,90.62,90.44,90.61,2262
4,90.49,90.53,90.4,90.52,2288
5,90.6,90.6,90.58,90.5899,700
6,90.53,90.7,90.49,90.6,2737
7,90.6,90.6,90.59,90.59,200
8,90.58,90.58,90.54,90.58,1300
9,90.79,90.79,90.545,90.545,4007
10,90.68,90.79,90.68,90.79,1566
11,90.58,90.73,90.58,90.73,1616
12,90.68,90.68,90.625,90.64,900
13,90.65,90.74,90.6,90.71,3400
14,90.65,90.71,90.63,90.68,1400
15,90.805,90.83,90.7,90.7,1504
16,90.7,90.83,90.7,90.83,4567
17,90.7,90.7,90.66,90.67,1100
18,90.62,90.65,90.6048,90.65,1850
19,90.74,90.74,90.57,90.6,3027
20,90.72,90.725,90.66,90.725,5740
21,90.79,90.79,90.7,90.72,4244
22,90.86,90.86,90.77,90.85,14900
23,90.85,90.86,90.77,90.86,2650
24,90.81,90.86,90.78,90.82,2550
25,90.76,90.79,90.69,90.77,4985
26,90.68,90.76,90.67,90.73,1400
27,90.68,90.73,90.68,90.69,4324
28,90.64,90.76,90.64,90.71,5300
29,90.64,90.73,90.64,90.67,3200
30,90.73,90.74,90.65,90.65,3122
31,90.69,90.73,90.63,90.68,4068
32,90.67,90.68,90.59,90.67,4412
33,90.7,90.71,90.605,90.67,1900
34,90.67,90.75,90.66,90.71,2000
35,90.59,90.66,90.59,90.64,1650
36,90.56,90.605,90.51,90.58,4800
37,90.595,90.62,90.535,90.535,5204
38,90.5675,90.61,90.54,90.56,4100
39,90.63,90.63,90.58,90.58,4771
40,90.66,90.67,90.625,90.625,739
41,90.65,90.66,90.63,90.66,4600
42,90.63,90.66,90.62,90.65,2600
43,90.63,90.65,90.6,90.62,2868
44,90.83,90.83,90.66,90.66,3500
45,90.8,90.8,90.76,90.8,3310
46,90.85,90.85,90.791,90.8,2408
47,90.98,90.98,90.84,90.85,3100
48,91.05,91.05,90.95,90.97,14026
49,91.04,91.07,91.02,91.07,2100
50,91.12,91.18,91.045,91.045,3046
51,91.15,91.17,91.06,91.09,13425
52,91.14,91.21,91.12,91.19,5400
53,91.14,91.18,91.11,91.13,6164
54,91.13,91.17,91.13,91.145,400
55,91.24,91.24,91.13,91.13,6542
56,91.24,91.28,91.2,91.26,3667
57,91.28,91.28,91.23,91.23,1259
58,91.235,91.3,91.23,91.3,2056
59,91.23,91.29,91.23,91.28,3881
60,91.08,91.24,91.08,91.24,13596
61,91.145,91.22,91.1,91.1,4049
62,91.2,91.2,91.12,91.12,1324
63,91.11,91.17,91.11,91.17,2770
64,91.105,91.12,91.08,91.09,1800
65,91.24,91.24,91.15,91.15,3342
66,91.3,91.35,91.25,91.25,2069
67,91.32,91.32,91.25,91.3,11685
68,91.3,91.36,91.3,91.33,5219
69,91.24,91.3,91.22,91.3,4548
70,91.2,91.29,91.2,91.24,5150
71,91.17,91.18,91.11,91.18,1900
72,91.21,91.265,91.18,91.18,2800
73,91.2,91.2,91.14,91.18,2476
74,91.25,91.25,91.19,91.205,1700
75,91.26,91.33,91.26,91.31,2110
76,91.22,91.265,91.22,91.26,2991
77,91.26,91.29,91.2,91.21,4900
78,91.31,91.31,91.25,91.27,3019
79,91.415,91.42,91.31,91.33,22665
80,91.35,91.45,91.34,91.415,10847
81,91.355,91.39,91.26,91.35,6708
82,91.3498,91.35,91.31,91.34,2035
83,91.31,91.4,91.31,91.34,5758
84,91.3,91.33,91.26,91.33,1300
85,91.36,91.37,91.28,91.3,1819
86,91.31,91.3485,91.3,91.34,2609
87,91.31,91.34,91.29,91.3,6122
88,91.28,91.33,91.25,91.31,3800
89,91.28,91.3,91.27,91.29,1850
90,91.3,91.32,91.27,91.27,6769
91,91.31,91.33,91.29,91.31,4507
92,91.31,91.36,91.27,91.32,5557
93,91.2,91.31,91.2,91.31,2600
94,91.155,91.2,91.12,91.19,4236
95,91.01,91.17,90.99,91.17,5921
96,90.97,91.07,90.97,91.015,2930
97,91.05,91.05,90.94,90.97,2300
98,91.09,91.13,91.06,91.06,4037
99,91.13,91.19,91.11,91.11,5933
100,91.15,91.19,91.11,91.135,4958
101,91.04,91.13,91.04,91.13,2225
102,91.01,91.035,91.01,91.03,900
103,91.28,91.29,91.04,91.04,11994
104,91.38,91.3959,91.28,91.31,5120
105,91.4,91.44,91.33,91.36,3600
106,91.44,91.47,91.42,91.42,3750
107,91.53,91.56,91.47,91.47,7973
108,91.5897,91.5897,91.54,91.54,4600
109,91.63,91.68,91.58,91.625,9803
110,91.73,91.76,91.63,91.63,6905
111,91.661,91.75,91.661,91.74,2800
112,91.75,91.77,91.67,91.67,4335
113,91.78,91.82,91.73,91.75,6037
114,91.71,91.81,91.71,91.8,2600
115,91.685,91.7,91.65,91.69,26859
116,91.85,91.85,91.7,91.7,10566
117,91.88,91.9,91.82,91.86,10530
118,91.81,91.8996,91.78,91.8996,2450
119,91.825,91.825,91.805,91.805,1050
120,91.76,91.83,91.74,91.83,3800
121,91.745,91.775,91.72,91.775,8269
122,91.65,91.71,91.65,91.71,1700
123,91.63,91.68,91.62,91.66,2596
124,91.62,91.68,91.62,91.64,1800
125,91.6822,91.69,91.6,91.6,4339
126,91.74,91.76,91.67,91.67,5149
127,91.775,91.78,91.7,91.7,3250
128,91.79,91.79,91.78,91.79,2941
129,91.73,91.79,91.73,91.78,4000
130,91.65,91.73,91.65,91.71,6736
131,91.75,91.75,91.68,91.69,1961
132,91.69,91.7585,91.67,91.7585,1742
133,91.72,91.75,91.63,91.7,6900
134,91.64,91.72,91.64,91.72,800
135,91.63,91.66,91.59,91.65,3175
136,91.67,91.68,91.63,91.64,2500
137,91.67,91.7,91.67,91.7,2150
138,91.74,91.745,91.71,91.71,800
139,91.84,91.84,91.77,91.79,4641
140,91.91,91.92,91.83,91.84,7760
141,91.81,91.89,91.785,91.88,3492
142,91.8,91.81,91.8,91.81,996
143,91.7,91.8,91.7,91.78,4400
144,91.74,91.75,91.68,91.71,4648
145,91.66,91.74,91.66,91.74,2900
146,91.689,91.71,91.67,91.68,1923
147,91.64,91.69,91.64,91.66,2700
148,91.56,91.64,91.56,91.63,3567
149,91.59,91.59,91.56,91.56,2167
150,91.57,91.64,91.57,91.61,3079
151,91.63,91.63,91.56,91.57,2355
152,91.64,91.68,91.61,91.64,2500
153,91.63,91.63,91.57,91.61,3232
154,91.59,91.62,91.58,91.62,1000
155,91.62,91.62,91.59,91.605,500
156,91.55,91.59,91.5175,91.59,6752
157,91.54,91.54,91.52,91.52,2451
158,91.52,91.54,91.51,91.53,1833
159,91.56,91.57,91.52,91.52,1400
160,91.59,91.59,91.54,91.54,1900
161,91.55,91.57,91.55,91.57,3200
162,91.52,91.58,91.52,91.58,7800
163,91.56,91.56,91.56,91.56,100
164,91.57,91.58,91.56,91.58,1343
165,91.5472,91.57,91.53,91.57,3259
166,91.55,91.55,91.51,91.53,3600
167,91.555,91.56,91.52,91.55,3372
168,91.58,91.6,91.57,91.57,2050
169,91.54,91.585,91.54,91.58,1600
170,91.53,91.59,91.53,91.55,3350
171,91.585,91.6,91.55,91.56,920
172,91.53,91.5893,91.53,91.5893,2099
173,91.55,91.55,91.54,91.54,1800
174,91.62,91.62,91.55,91.55,1500
175,91.56,91.6,91.56,91.6,1100
176,91.53,91.55,91.52,91.55,1100
177,91.52,91.55,91.52,91.54,2400
178,91.55,91.55,91.52,91.53,1700
179,91.54,91.555,91.51,91.54,3304
180,91.4949,91.52,91.4949,91.52,4676
181,91.53,91.54,91.5,91.5,2066
182,91.55,91.56,91.53,91.53,1600
183,91.55,91.57,91.545,91.55,3100
184,91.59,91.59,91.53,91.55,1400
185,91.61,91.61,91.5788,91.58,2900
186,91.58,91.63,91.58,91.63,3150
187,91.52,91.57,91.5,91.57,1300
188,91.57,91.59,91.53,91.53,2500
189,91.58,91.58,91.58,91.58,200
190,91.6,91.6,91.58,91.58,900
191,91.6,91.6108,91.591,91.61,2715
192,91.57,91.59,91.55,91.59,2300
193,91.48,91.57,91.48,91.57,2400
194,91.49,91.5,91.46,91.47,2350
195,91.46,91.49,91.46,91.49,818
196,91.46,91.46,91.46,91.46,300
197,91.43,91.48,91.43,91.47,3074
198,91.43,91.4428,91.43,91.44,1855
199,91.43,91.45,91.41,91.42,5240
200,91.45,91.455,91.44,91.44,2250
201,91.46,91.46,91.44,91.44,1500
202,91.5,91.5,91.47,91.48,1400
203,91.5,91.52,91.49,91.51,2800
204,91.47,91.49,91.45,91.49,1800
205,91.46,91.47,91.45,91.47,4758
206,91.51,91.51,91.48,91.48,500
207,91.48,91.505,91.48,91.5,1700
208,91.54,91.54,91.49,91.5,17354
209,91.455,91.545,91.45,91.545,12314
210,91.46,91.51,91.43,91.45,8860
211,91.49,91.51,91.45,91.45,13158
212,91.47,91.49,91.45,91.48,11380
213,91.51,91.52,91.46,91.47,8400
214,91.48,91.54,91.48,91.52,17100
215,91.51,91.51,91.47,91.48,5093
216,91.48,91.52,91.45,91.52,8191
217,91.52,91.53,91.46,91.47,4800
218,91.5214,91.525,91.51,91.525,2478
219,91.54,91.54,91.51,91.51,1100
220,91.54,91.55,91.53,91.53,6725
221,91.52,91.54,91.52,91.52,3600
222,91.49,91.52,91.47,91.52,4710
223,91.485,91.5,91.47,91.49,5100
224,91.49,91.505,91.48,91.48,5237
225,91.48,91.5,91.47,91.48,13360
226,91.45,91.49,91.44,91.46,6000
227,91.41,91.47,91.39,91.45,7700
228,91.35,91.45,91.35,91.4,19909
229,91.23,91.35,91.22,91.35,5800
230,91.3,91.3,91.22,91.22,2838
231,91.32,91.32,91.3,91.3,500
232,91.31,91.31,91.31,91.31,1500
233,91.35,91.355,91.33,91.33,1200
234,91.295,91.34,91.28,91.31,3644
235,91.29,91.3,91.27,91.29,6939
236,91.32,91.32,91.28,91.28,800
237,91.35,91.35,91.3,91.32,3500
238,91.37,91.39,91.36,91.36,3400
239,91.35,91.4,91.34,91.36,4263
240,91.17,91.34,91.17,91.34,4027
241,91.21,91.25,91.19,91.19,2650
242,91.24,91.24,91.22,91.22,900
243,91.23,91.25,91.225,91.24,1800
244,91.18,91.23,91.18,91.23,3365
245,91.21,91.21,91.19,91.19,1655
246,91.21,91.21,91.18,91.2,2300
247,91.19,91.23,91.19,91.23,800
248,91.2,91.225,91.195,91.195,800
249,91.235,91.24,91.1756,91.18,3136
250,91.2,91.24,91.19,91.24,1800
251,91.21,91.22,91.21,91.21,2400
252,91.21,91.22,91.21,91.21,1309
253,91.205,91.24,91.17,91.23,2450
254,91.23,91.24,91.22,91.22,600
255,91.28,91.28,91.22,91.24,6140
256,91.28,91.3,91.27,91.27,1900
257,91.31,91.31,91.25,91.28,4656
258,91.295,91.32,91.27,91.31,5576
259,91.23,91.3,91.23,91.29,3000
260,91.27,91.27,91.23,91.24,2000
261,91.21,91.27,91.2,91.265,3477
262,91.235,91.25,91.235,91.24,1900
263,91.21,91.26,91.21,91.24,1300
264,91.25,91.25,91.25,91.25,300
265,91.25,91.28,91.25,91.27,2831
266,91.25,91.29,91.25,91.27,2704
267,91.31,91.31,91.26,91.26,800
268,91.32,91.32,91.26,91.3,3483
269,91.3,91.34,91.3,91.33,1600
270,91.28,91.31,91.27,91.3,2983
271,91.25,91.28,91.25,91.27,600
272,91.3,91.36,91.2587,91.2587,8026
273,91.38,91.38,91.3,91.3,1400
274,91.32,91.4,91.32,91.39,3260
275,91.255,91.3211,91.25,91.32,6727
276,91.255,91.295,91.25,91.27,1583
277,91.24,91.28,91.24,91.25,4687
278,91.24,91.24,91.23,91.23,300
279,91.22,91.235,91.21,91.23,1601
280,91.19,91.23,91.15,91.23,2900
281,91.18,91.1811,91.17,91.18,1300
282,91.23,91.23,91.19,91.19,1900
283,91.18,91.22,91.18,91.22,11669
284,91.2345,91.2345,91.19,91.2,7845
285,91.247,91.28,91.24,91.24,3300
286,91.25,91.3,91.25,91.25,8208
287,91.365,91.365,91.27,91.27,7774
288,91.385,91.4,91.35,91.37,11526
289,91.4,91.41,91.36,91.37,6816
290,91.4,91.41,91.37,91.38,3150
291,91.385,91.41,91.38,91.4,6389
292,91.44,91.44,91.37,91.385,3944
293,91.38,91.44,91.38,91.44,5749
294,91.38,91.44,91.38,91.38,3999
295,91.345,91.385,91.33,91.385,7121
296,91.35,91.36,91.33,91.3375,2378
297,91.45,91.45,91.34,91.34,4501
298,91.5,91.5,91.47,91.49,4500
299,91.515,91.545,91.505,91.54,8149
300,91.505,91.52,91.5,91.51,2374
301,91.465,91.505,91.465,91.5,6188
302,91.445,91.465,91.43,91.465,3500
303,91.425,91.435,91.42,91.435,2446
304,91.42,91.42,91.4,91.41,6958
305,91.43,91.47,91.42,91.42,3292
306,91.42,91.42,91.38,91.41,2800
307,91.43,91.43,91.41,91.43,2231
308,91.4368,91.46,91.43,91.43,1850
309,91.445,91.46,91.445,91.46,1100
310,91.455,91.46,91.44,91.4457,1697
311,91.5,91.5,91.46,91.46,3348
312,91.39,91.51,91.39,91.51,2350
313,91.38,91.38,91.37,91.375,3120
314,91.36,91.39,91.36,91.37,3097
315,91.33,91.37,91.33,91.3534,2711
316,91.36,91.36,91.34,91.34,900
317,91.35,91.36,91.34,91.36,2900
318,91.379,91.38,91.35,91.35,1250
319,91.4,91.4,91.39,91.39,1900
320,91.42,91.46,91.4,91.43,5167
321,91.4,91.4369,91.4,91.42,1846
322,91.44,91.44,91.42,91.42,1800
323,91.43,91.43,91.3899,91.41,3818
324,91.45,91.45,91.42,91.42,1300
325,91.49,91.51,91.46,91.46,2150
326,91.565,91.565,91.5,91.5,14170
327,91.6,91.62,91.56,91.59,6552
328,91.59,91.63,91.59,91.595,9392
329,91.61,91.62,91.58,91.58,5325
330,91.64,91.645,91.61,91.62,3800
331,91.645,91.65,91.61,91.61,5934
332,91.6,91.645,91.58,91.645,8412
333,91.6,91.61,91.59,91.6,6300
334,91.6,91.61,91.58,91.61,5400
335,91.62,91.625,91.59,91.59,4170
336,91.61,91.62,91.58,91.62,3000
337,91.57,91.605,91.55,91.59,6851
338,91.54,91.57,91.53,91.57,4754
339,91.52,91.52,91.5,91.52,2553
340,91.501,91.52,91.5,91.52,2200
341,91.54,91.54,91.5,91.51,2100
342,91.55,91.55,91.53,91.53,2300
343,91.55,91.57,91.54,91.55,3600
344,91.58,91.58,91.55,91.55,2901
345,91.58,91.6,91.57,91.57,3833
346,91.53,91.57,91.515,91.57,3649
347,91.56,91.56,91.54,91.54,1498
348,91.52,91.55,91.52,91.55,5008
349,91.52,91.53,91.5,91.5,1976
350,91.55,91.55,91.52,91.53,2016
351,91.51,91.545,91.51,91.5418,8873
352,91.55,91.56,91.51,91.51,6233
353,91.57,91.58,91.55,91.55,3890
354,91.56,91.56,91.543,91.56,6210
355,91.55,91.56,91.54,91.56,8175
356,91.55,91.57,91.52,91.54,11935
357,91.57,91.57,91.54,91.55,7281
358,91.55,91.58,91.55,91.56,2525
359,91.565,91.5675,91.55,91.55,5264
360,91.61,91.61,91.55,91.5643,6582
361,91.61,91.61,91.59,91.6,1245
362,91.6199,91.62,91.59,91.6,6719
363,91.68,91.68,91.61,91.61,4500
364,91.68,91.69,91.67,91.69,7181
365,91.71,91.72,91.68,91.68,5898
366,91.705,91.71,91.7,91.71,3921
367,91.655,91.705,91.65,91.7,19176
368,91.69,91.7,91.64,91.65,7431
369,91.735,91.74,91.7,91.71,10198
370,91.73,91.75,91.7,91.73,8837
371,91.76,91.76,91.69,91.72,10125
372,91.76,91.8,91.755,91.755,10265
373,91.71,91.77,91.71,91.77,6407
374,91.69,91.72,91.67,91.72,6729
375,91.66,91.71,91.65,91.69,9777
376,91.63,91.66,91.61,91.65,10362
377,91.6511,91.6511,91.63,91.63,5228
378,91.715,91.73,91.66,91.66,7122
379,91.78,91.78,91.725,91.73,8719
380,91.77,91.78,91.76,91.77,7241
381,91.7725,91.79,91.77,91.78,10558
382,91.8,91.8,91.76,91.77,13410
383,91.86,91.86,91.79,91.8,20469
384,91.855,91.86,91.805,91.855,28312
385,91.8,91.855,91.8,91.855,14467
386,91.75,91.81,91.75,91.8,16659
387,91.75,91.78,91.72,91.76,23441
388,91.805,91.805,91.76,91.76,23212
389,91.8,91.83,91.8,91.8,21153
390,91.81,91.83,91.79,91.805,36785
