PPG,PPG Industries,Materials,8,Specialty Chemicals,29022294210,1240638
a1499952600,111.79,111.79,111.79,111.79,10277
2,111.74,111.82,111.74,111.82,1300
3,111.85,111.93,111.81,111.81,3300
4,111.94,111.96,111.845,111.845,1400
5,111.92,111.96,111.85,111.92,1400
6,111.86,111.86,111.81,111.83,400
7,111.8,111.9,111.8,111.9,1004
8,111.85,111.88,111.8,111.8,3800
9,111.93,111.94,111.85,111.86,1800
10,111.89,111.91,111.86,111.91,1300
11,111.86,111.885,111.86,111.885,300
12,111.92,111.93,111.88,111.88,1800
13,111.89,111.92,111.89,111.91,3700
14,111.845,111.9,111.8001,111.89,2334
15,111.79,111.83,111.76,111.83,1226
16,111.78,111.8,111.76,111.8,1445
17,111.74,111.76,111.73,111.76,1000
19,111.84,111.86,111.74,111.74,800
20,111.905,111.905,111.87,111.87,400
21,111.92,111.96,111.9,111.94,1500
22,111.91,111.945,111.9,111.945,2200
23,111.95,111.95,111.9,111.915,2000
24,111.965,111.965,111.93,111.94,3000
25,111.99,112,111.95,111.965,2800
26,111.99,112,111.96,111.995,1868
27,111.96,112,111.96,112,500
28,112.04,112.04,111.99,111.99,300
29,112.06,112.07,112.04,112.04,400
30,112.16,112.16,112.09,112.11,1000
31,112.08,112.12,112.08,112.12,1081
32,112.0868,112.0868,112.07,112.08,850
33,112.07,112.07,112.01,112.07,1453
34,112.11,112.11,112.08,112.08,500
35,112.13,112.15,112.11,112.12,4835
36,112.16,112.18,112.14,112.18,3350
37,112.14,112.19,112.13,112.19,1300
38,112.22,112.22,112.15,112.15,400
39,112.17,112.2,112.17,112.2,300
40,112.22,112.22,112.22,112.22,100
41,112.231,112.231,112.23,112.23,200
42,112.25,112.28,112.25,112.28,2511
43,112.19,112.265,112.19,112.25,1950
44,112.18,112.2,112.18,112.2,300
45,112.15,112.15,112.15,112.15,100
46,112.17,112.21,112.17,112.19,1400
47,112.185,112.2,112.14,112.16,1700
48,112.22,112.22,112.21,112.21,300
49,112.17,112.19,112.17,112.19,800
51,112.21,112.21,112.14,112.14,600
52,112.22,112.23,112.22,112.23,300
53,112.24,112.24,112.21,112.24,500
54,112.22,112.26,112.21,112.26,1700
55,112.25,112.25,112.22,112.22,1100
56,112.25,112.28,112.25,112.28,400
57,112.21,112.27,112.21,112.27,1300
58,112.11,112.2,112.11,112.2,600
60,112.1,112.15,112.09,112.09,5177
61,112.09,112.12,112.09,112.12,500
62,112.08,112.08,112.072,112.08,500
63,112.05,112.08,112.05,112.08,992
64,112.09,112.09,112.05,112.05,600
65,112.08,112.1,112.08,112.08,600
66,112.03,112.11,112.03,112.1,2200
67,111.97,112.02,111.97,112.02,1600
68,111.98,111.99,111.98,111.98,700
70,111.99,111.99,111.95,111.95,300
71,112,112,111.97,111.99,799
72,112,112.01,112,112.01,300
75,112.01,112.02,112,112.02,1400
77,112.07,112.07,112.03,112.03,400
78,112.09,112.09,112.07,112.07,900
79,112.08,112.1,112.08,112.09,1800
80,112.09,112.09,112.07,112.08,1349
81,112.13,112.13,112.09,112.1,2500
82,112.09,112.12,112.09,112.12,400
83,112.1,112.1,112.1,112.1,100
84,112.1,112.11,112.1,112.11,500
85,112.1,112.1,112.1,112.1,300
86,112.13,112.13,112.12,112.12,500
87,112.14,112.14,112.13,112.13,400
88,112.15,112.15,112.15,112.15,110
89,112.12,112.14,112.12,112.14,2300
90,112.12,112.12,112.12,112.12,100
91,112.12,112.12,112.11,112.11,400
93,112.15,112.15,112.12,112.15,700
94,112.15,112.16,112.11,112.16,2000
95,112.1624,112.1624,112.15,112.16,780
96,112.18,112.21,112.18,112.19,1225
97,112.17,112.17,112.16,112.16,800
98,112.2098,112.23,112.18,112.18,1800
99,112.21,112.21,112.21,112.21,100
100,112.22,112.22,112.2,112.2,400
101,112.22,112.266,112.22,112.24,1016
102,112.2,112.22,112.2,112.21,700
103,112.22,112.23,112.22,112.23,500
104,112.25,112.25,112.2314,112.2314,600
105,112.2824,112.3,112.2699,112.27,1095
106,112.27,112.3,112.27,112.28,800
107,112.27,112.28,112.27,112.27,2100
108,112.28,112.28,112.28,112.28,800
109,112.27,112.27,112.27,112.27,100
110,112.34,112.34,112.28,112.28,1200
111,112.33,112.33,112.33,112.33,200
112,112.29,112.32,112.29,112.32,1720
113,112.3,112.31,112.3,112.3,300
114,112.31,112.31,112.3,112.3,400
115,112.333,112.34,112.31,112.31,555
116,112.36,112.4,112.31,112.32,2200
117,112.36,112.36,112.36,112.36,100
118,112.35,112.35,112.35,112.35,100
119,112.35,112.3573,112.35,112.3573,325
120,112.38,112.38,112.36,112.37,1300
121,112.365,112.37,112.365,112.37,815
122,112.33,112.36,112.33,112.36,2250
123,112.3,112.31,112.3,112.31,200
124,112.36,112.36,112.33,112.33,1215
125,112.34,112.34,112.34,112.34,100
126,112.3,112.34,112.3,112.34,700
127,112.3,112.3,112.3,112.3,100
128,112.29,112.29,112.29,112.29,100
129,112.3,112.3,112.3,112.3,100
130,112.28,112.28,112.28,112.28,1200
131,112.3,112.3,112.285,112.285,400
132,112.29,112.29,112.29,112.29,100
133,112.305,112.305,112.305,112.305,100
134,112.3,112.3,112.28,112.29,2156
135,112.3,112.3,112.3,112.3,200
136,112.29,112.3,112.29,112.3,600
137,112.27,112.27,112.27,112.27,300
138,112.28,112.31,112.27,112.27,800
139,112.32,112.32,112.3,112.3,700
142,112.33,112.33,112.33,112.33,200
143,112.36,112.37,112.35,112.35,500
144,112.38,112.38,112.35,112.36,1350
145,112.3702,112.4,112.3702,112.3776,550
146,112.36,112.36,112.36,112.36,100
147,112.37,112.39,112.37,112.38,700
148,112.4,112.4,112.4,112.4,400
149,112.41,112.41,112.4,112.4,1235
150,112.44,112.45,112.44,112.4499,490
151,112.44,112.44,112.44,112.44,400
152,112.43,112.44,112.43,112.43,1880
153,112.45,112.46,112.44,112.44,500
154,112.43,112.44,112.43,112.43,800
155,112.46,112.46,112.45,112.45,507
156,112.47,112.475,112.47,112.47,661
157,112.48,112.48,112.47,112.47,400
158,112.47,112.48,112.47,112.47,700
159,112.49,112.49,112.49,112.49,200
160,112.48,112.49,112.48,112.49,500
161,112.5,112.5,112.48,112.48,607
162,112.43,112.49,112.43,112.49,1433
163,112.46,112.46,112.46,112.46,100
164,112.46,112.4611,112.45,112.45,362
165,112.4791,112.4791,112.4791,112.4791,100
166,112.46,112.46,112.46,112.46,200
167,112.48,112.48,112.47,112.47,395
168,112.45,112.46,112.45,112.46,2205
169,112.42,112.45,112.42,112.45,900
170,112.41,112.41,112.398,112.398,626
174,112.42,112.42,112.41,112.42,854
175,112.427,112.427,112.41,112.41,491
176,112.4283,112.4283,112.41,112.4264,560
177,112.44,112.4437,112.43,112.43,300
178,112.47,112.47,112.45,112.45,400
179,112.44,112.47,112.44,112.47,2300
181,112.43,112.45,112.43,112.45,700
182,112.46,112.47,112.46,112.46,700
183,112.46,112.46,112.46,112.46,100
184,112.48,112.48,112.48,112.48,100
185,112.46,112.46,112.45,112.46,351
186,112.45,112.47,112.45,112.47,200
187,112.45,112.45,112.45,112.45,300
188,112.45,112.45,112.45,112.45,400
189,112.47,112.47,112.47,112.47,100
191,112.4712,112.4712,112.45,112.45,600
193,112.47,112.49,112.47,112.47,400
194,112.48,112.49,112.48,112.49,1106
195,112.47,112.48,112.47,112.48,700
196,112.47,112.49,112.47,112.47,1100
197,112.48,112.48,112.48,112.48,100
198,112.5,112.5,112.5,112.5,200
199,112.51,112.52,112.5,112.5,985
200,112.49,112.52,112.48,112.52,900
201,112.51,112.51,112.48,112.48,503
203,112.53,112.55,112.52,112.52,701
205,112.55,112.55,112.55,112.55,500
206,112.5501,112.56,112.55,112.56,1800
207,112.56,112.56,112.55,112.55,300
210,112.57,112.57,112.56,112.56,1150
211,112.55,112.55,112.55,112.55,100
212,112.57,112.58,112.56,112.56,1100
213,112.54,112.57,112.53,112.57,2198
214,112.54,112.54,112.54,112.54,200
215,112.54,112.54,112.54,112.54,100
216,112.54,112.55,112.54,112.55,400
217,112.56,112.56,112.54,112.54,512
218,112.54,112.56,112.54,112.56,200
219,112.54,112.54,112.54,112.54,500
220,112.55,112.55,112.54,112.54,800
221,112.54,112.55,112.54,112.54,769
222,112.54,112.54,112.54,112.54,100
224,112.545,112.56,112.54,112.54,1500
225,112.54,112.54,112.54,112.54,621
226,112.48,112.54,112.48,112.54,2400
227,112.46,112.47,112.46,112.47,400
228,112.44,112.47,112.44,112.47,700
229,112.43,112.43,112.43,112.43,100
230,112.41,112.44,112.41,112.43,900
231,112.36,112.43,112.36,112.43,1305
232,112.33,112.35,112.33,112.35,1200
233,112.255,112.3,112.24,112.29,2413
234,112.24,112.26,112.22,112.24,3587
235,112.28,112.28,112.28,112.28,200
237,112.326,112.339,112.31,112.31,1100
238,112.34,112.34,112.34,112.34,600
240,112.32,112.33,112.31,112.33,1600
241,112.33,112.33,112.32,112.32,1600
242,112.36,112.36,112.34,112.34,1600
244,112.38,112.3899,112.38,112.3899,208
245,112.395,112.395,112.37,112.37,600
246,112.38,112.39,112.375,112.38,1200
247,112.4,112.4,112.4,112.4,100
248,112.41,112.41,112.4,112.4,1199
250,112.43,112.43,112.42,112.42,400
251,112.42,112.43,112.42,112.43,1400
252,112.46,112.46,112.42,112.42,1020
253,112.46,112.46,112.46,112.46,200
254,112.49,112.49,112.46,112.46,1200
255,112.47,112.47,112.47,112.47,100
256,112.5,112.505,112.5,112.505,350
257,112.53,112.53,112.49,112.51,3000
258,112.53,112.55,112.53,112.55,500
259,112.53,112.53,112.52,112.53,1050
260,112.535,112.535,112.51,112.51,600
262,112.54,112.56,112.54,112.55,1901
263,112.52,112.53,112.515,112.53,800
264,112.51,112.51,112.49,112.5,1500
265,112.53,112.53,112.515,112.515,300
267,112.56,112.56,112.55,112.55,500
268,112.57,112.57,112.56,112.57,800
269,112.56,112.56,112.56,112.56,100
270,112.5899,112.5901,112.58,112.58,1593
271,112.58,112.59,112.57,112.57,700
272,112.61,112.61,112.58,112.58,1100
273,112.6,112.63,112.6,112.6,500
274,112.62,112.62,112.6,112.62,300
275,112.57,112.6,112.57,112.59,1300
276,112.57,112.57,112.56,112.56,400
277,112.55,112.57,112.55,112.57,1441
278,112.57,112.57,112.57,112.57,500
280,112.54,112.5699,112.54,112.5699,1841
281,112.53,112.53,112.52,112.52,500
282,112.52,112.53,112.52,112.53,253
283,112.52,112.56,112.52,112.53,3562
284,112.505,112.52,112.495,112.52,1000
285,112.5625,112.5625,112.51,112.51,2875
286,112.57,112.57,112.55,112.56,3062
287,112.6,112.6,112.58,112.58,1000
288,112.61,112.61,112.6,112.61,1340
289,112.59,112.61,112.59,112.61,1060
290,112.58,112.58,112.58,112.58,100
291,112.6,112.6,112.58,112.58,650
292,112.59,112.605,112.59,112.6,758
293,112.59,112.59,112.58,112.59,400
294,112.56,112.58,112.56,112.58,900
295,112.55,112.55,112.54,112.54,200
296,112.59,112.59,112.57,112.57,725
297,112.58,112.59,112.55,112.57,1500
298,112.55,112.57,112.55,112.57,1322
299,112.55,112.55,112.55,112.55,100
300,112.53,112.54,112.53,112.54,250
302,112.51,112.51,112.51,112.51,300
303,112.53,112.53,112.51,112.51,700
304,112.49,112.52,112.49,112.52,2655
305,112.48,112.48,112.47,112.47,300
306,112.4801,112.493,112.4801,112.493,231
307,112.49,112.49,112.467,112.49,2198
308,112.49,112.49,112.47,112.48,1700
309,112.49,112.4901,112.49,112.4901,356
310,112.48,112.49,112.48,112.49,900
311,112.48,112.48,112.48,112.48,300
312,112.49,112.49,112.4781,112.4781,1633
313,112.48,112.5,112.47,112.49,1881
315,112.47,112.47,112.47,112.47,400
316,112.49,112.49,112.48,112.48,902
317,112.48,112.49,112.48,112.49,500
318,112.5,112.5,112.48,112.49,400
319,112.51,112.54,112.5,112.5,3500
320,112.53,112.53,112.51,112.51,1048
321,112.54,112.54,112.53,112.53,1962
322,112.54,112.54,112.5301,112.5301,1055
323,112.51,112.53,112.51,112.53,1150
324,112.5164,112.5164,112.51,112.51,900
325,112.52,112.53,112.52,112.52,700
326,112.54,112.54,112.52,112.52,721
327,112.6,112.6,112.54,112.54,1200
328,112.6,112.6,112.58,112.58,400
329,112.6,112.6,112.58,112.59,325
330,112.595,112.605,112.58,112.59,1600
331,112.58,112.59,112.58,112.59,2649
332,112.57,112.59,112.57,112.58,3659
333,112.54,112.57,112.54,112.57,1300
334,112.54,112.54,112.52,112.52,900
335,112.515,112.54,112.515,112.54,2029
336,112.48,112.51,112.48,112.51,1500
337,112.44,112.48,112.43,112.48,1614
338,112.43,112.44,112.42,112.44,2800
339,112.41,112.43,112.41,112.43,809
340,112.43,112.43,112.41,112.41,700
341,112.37,112.41,112.37,112.41,1704
342,112.44,112.44,112.38,112.38,3025
343,112.4705,112.475,112.43,112.43,500
344,112.505,112.505,112.47,112.47,329
345,112.51,112.51,112.5,112.5,500
346,112.49,112.5,112.49,112.5,2359
347,112.49,112.5,112.49,112.49,1300
348,112.51,112.52,112.5,112.5,1640
349,112.5,112.5,112.5,112.5,211
350,112.51,112.51,112.5,112.5,1427
351,112.5,112.515,112.5,112.51,2300
352,112.49,112.5,112.49,112.5,700
353,112.49,112.49,112.46,112.49,1872
354,112.49,112.5,112.48,112.5,1900
355,112.48,112.49,112.48,112.49,1300
356,112.48,112.48,112.48,112.48,1200
357,112.48,112.48,112.47,112.47,800
358,112.5,112.5,112.48,112.48,1339
359,112.48,112.5,112.47,112.5,2163
360,112.46,112.47,112.445,112.47,2241
361,112.46,112.47,112.46,112.46,700
362,112.44,112.465,112.43,112.46,2548
363,112.46,112.47,112.45,112.45,2300
364,112.465,112.47,112.45,112.47,2347
365,112.44,112.46,112.44,112.46,1900
366,112.47,112.47,112.45,112.45,2380
367,112.47,112.47,112.45,112.46,1000
368,112.47,112.47,112.46,112.46,500
369,112.4963,112.5,112.47,112.47,3533
370,112.455,112.51,112.44,112.5,11341
371,112.435,112.45,112.43,112.45,5575
372,112.44,112.44,112.43,112.43,1902
373,112.4205,112.45,112.415,112.45,3534
374,112.42,112.42,112.42,112.42,549
375,112.44,112.44,112.41,112.41,6630
376,112.46,112.47,112.43,112.435,6070
377,112.49,112.49,112.47,112.47,1901
378,112.49,112.49,112.48,112.49,2600
379,112.47,112.49,112.465,112.49,4147
380,112.465,112.465,112.46,112.46,1500
381,112.455,112.465,112.45,112.46,5600
382,112.44,112.455,112.44,112.455,4241
383,112.48,112.48,112.445,112.445,6578
384,112.45,112.47,112.45,112.47,4345
385,112.43,112.45,112.43,112.44,7135
386,112.42,112.44,112.42,112.43,8178
387,112.45,112.45,112.42,112.42,7427
388,112.46,112.46,112.435,112.45,8392
389,112.44,112.46,112.43,112.455,6501
390,112.44,112.44,112.4,112.44,38500
