EOG,EOG Resources,Energy,3,Oil & Gas Exploration & Production,55405653716,3166057
a1495200660,92.29,92.41,92.07,92.38,212546
1,92.37,92.4,92.25,92.28,9143
2,92.39,92.46,92.3,92.3,7285
3,92.64,92.8,92.4,92.43,15732
4,92.65,92.74,92.55,92.63,11125
5,92.7,92.7,92.55,92.66,15281
6,92.82,92.85,92.66,92.68,9214
7,93.17,93.18,92.84,92.84,14135
8,93.34,93.36,93.12,93.19,11783
9,93.46,93.48,93.26,93.285,14328
10,93.64,93.69,93.43,93.44,31228
11,93.43,93.68,93.43,93.68,12961
12,93.22,93.46,93.18,93.448,9146
13,93.21,93.245,93.18,93.2,5323
14,93.2,93.21,93.1,93.21,7703
15,93.29,93.3,93.1,93.2,8250
16,93.22,93.34,93.22,93.32,3781
17,93.19,93.23,93.14,93.21,4405
18,93.26,93.32,93.14,93.14,17199
19,93.35,93.39,93.27,93.27,5100
20,93.38,93.44,93.32,93.37,7048
21,93.64,93.68,93.36,93.36,11178
22,93.89,93.89,93.63,93.66,15962
23,93.99,94.05,93.68,93.88,72034
24,94.06,94.15,93.94,93.97,11880
25,93.97,94.06,93.97,94.06,7845
26,94,94.03,93.97,94.02,5380
27,93.99,94,93.93,94,5750
28,93.945,93.99,93.9201,93.99,2802
29,94,94,93.9552,93.96,1105
30,94.08,94.08,93.93,93.98,11740
31,94.02,94.15,94.02,94.11,15183
32,94.12,94.2,93.98,94.02,26041
33,94.16,94.16,94.08,94.12,8009
34,93.97,94.15,93.97,94.15,5300
35,93.9201,93.985,93.8675,93.985,4940
36,93.78,93.95,93.78,93.95,3872
37,93.88,93.88,93.77,93.78,3963
38,93.9,93.95,93.88,93.88,4400
39,93.93,93.94,93.91,93.925,1633
40,94.05,94.05,93.93,93.93,2733
41,94.2,94.23,94.09,94.09,6767
42,94.24,94.24,94.16,94.16,2800
43,94.11,94.215,94.1,94.215,6452
44,94.102,94.12,94.09,94.1,850
45,94.07,94.13,94,94.09,8275
46,94.06,94.07,93.97,94,12476
47,94.14,94.15,94,94.03,4480
48,94.09,94.14,94.03,94.14,4000
49,94.17,94.17,94.06,94.06,9381
50,94.16,94.17,94.12,94.16,11609
51,94.2,94.21,94.14,94.16,7190
52,94.23,94.27,94.1804,94.1808,5600
53,94.1699,94.23,94.12,94.23,10100
54,94.14,94.18,94.12,94.17,3660
55,94.23,94.25,94.12,94.12,5621
56,94.24,94.29,94.2241,94.24,3503
57,94.33,94.33,94.25,94.25,4768
58,94.3,94.32,94.23,94.29,2200
59,94.37,94.37,94.26,94.27,3470
60,94.37,94.39,94.31,94.38,9170
61,94.28,94.33,94.27,94.32,1750
62,94.16,94.31,94.14,94.28,2354
63,94.06,94.18,94.06,94.145,3500
64,93.95,94.088,93.95,94.0878,1850
65,94,94.02,93.92,93.93,11049
66,93.9369,94,93.9369,93.99,2256
67,93.99,93.99,93.9,93.91,3189
68,93.97,94,93.96,93.96,1341
69,93.97,93.98,93.91,93.94,1501
70,93.9101,93.95,93.91,93.91,1500
71,94.02,94.07,93.95,93.95,5953
72,93.99,94.07,93.99,94.02,2000
73,93.91,93.966,93.91,93.96,600
74,93.98,93.98,93.86,93.89,1923
75,94,94,93.99,93.99,300
76,94.02,94.04,94,94.04,2728
77,94.13,94.16,94.01,94.035,4301
78,94.19,94.19,94.08,94.14,4532
79,94.27,94.27,94.18,94.19,5091
80,94.37,94.37,94.27,94.29,4486
81,94.33,94.35,94.3,94.34,2700
82,94.32,94.34,94.295,94.32,2299
83,94.16,94.3,94.16,94.285,2705
84,94.08,94.21,94.08,94.16,3300
85,94.06,94.14,94.06,94.08,6698
86,94.15,94.15,94.06,94.08,1613
87,94.15,94.15,94.13,94.13,3676
88,94.07,94.14,94.07,94.13,1727
89,94.1,94.15,94.01,94.02,21907
90,94.15,94.18,94.01,94.1,11647
91,94.04,94.15,94.04,94.15,1896
92,93.945,94,93.92,94,4023
93,94.0501,94.06,93.955,93.96,10535
94,93.96,94.066,93.96,94.04,2100
95,93.96,93.97,93.92,93.97,1020
96,94.025,94.04,93.93,93.93,9253
97,94.046,94.06,94.01,94.01,2702
98,94.08,94.1,94.05,94.07,5679
99,94.03,94.095,94.03,94.095,3307
100,94.03,94.05,94.02,94.03,9871
101,94.05,94.05,94.02,94.03,8125
102,94.065,94.11,94.03,94.03,12161
103,94.02,94.06,94.01,94.05,1700
104,94.03,94.06,93.99,94,12174
105,94.04,94.06,94.0245,94.0247,1700
106,94.02,94.05,93.98,94.03,6286
107,93.94,94.025,93.94,94.025,2100
108,93.94,93.95,93.9,93.94,5651
109,93.96,93.98,93.94,93.95,4710
110,93.88,93.96,93.88,93.96,4434
111,93.88,93.94,93.84,93.89,9012
112,93.87,93.89,93.86,93.87,2300
113,93.92,93.92,93.8,93.86,3785
114,93.93,93.94,93.91,93.93,1700
115,93.84,93.93,93.82,93.93,3311
116,93.83,93.88,93.83,93.849,2633
117,93.93,93.93,93.81,93.81,3740
118,93.9299,93.95,93.9299,93.94,2540
119,93.88,93.91,93.87,93.89,2532
120,93.86,93.9,93.85,93.87,3206
121,93.7,93.82,93.7,93.82,1994
122,93.8,93.8,93.68,93.7214,6631
123,93.81,93.83,93.81,93.829,1000
124,93.9,93.9,93.8,93.8,1100
125,93.914,93.914,93.914,93.914,411
126,93.88,93.92,93.86,93.92,1907
127,93.78,93.85,93.78,93.84,1626
128,93.7977,93.83,93.75,93.78,4495
129,93.86,93.86,93.81,93.81,2100
130,93.7864,93.855,93.7864,93.83,1215
131,93.92,93.92,93.7986,93.7986,2285
132,93.9214,93.9214,93.9214,93.9214,120
133,93.955,93.96,93.9,93.94,3520
134,93.91,93.955,93.9,93.94,3200
135,93.99,93.99,93.9334,93.9334,1885
136,93.965,93.98,93.95,93.97,2200
137,93.91,93.98,93.91,93.98,3000
138,93.94,93.94,93.9,93.93,1100
139,93.95,93.95,93.91,93.93,10202
140,93.94,93.97,93.93,93.96,6232
141,93.98,94.01,93.94,93.96,12153
142,93.99,94.02,93.98,93.98,7267
143,94.02,94.025,93.99,93.9964,2616
144,93.98,94.04,93.98,94.03,10250
145,93.925,93.98,93.925,93.98,1800
146,93.93,93.94,93.905,93.925,6941
147,93.91,93.94,93.9,93.94,1960
148,93.83,93.93,93.83,93.91,6692
149,93.93,93.93,93.84,93.84,2268
150,93.935,94,93.91,93.95,6186
151,93.975,93.9882,93.945,93.945,4738
152,93.98,93.99,93.955,93.975,6200
153,93.95,93.97,93.95,93.97,600
154,93.89,93.93,93.89,93.93,1320
155,93.89,93.93,93.89,93.91,2700
156,94,94,93.88,93.89,8800
157,93.97,94.02,93.97,94,5779
158,93.945,93.965,93.94,93.96,2654
159,93.96,93.96,93.895,93.94,4592
160,94.03,94.03,93.93,93.96,5046
161,94.015,94.015,94.01,94.01,900
162,94.03,94.04,94,94.03,3741
163,94.025,94.09,94.01,94.04,8969
164,93.98,94.01,93.97,94.01,1300
165,93.95,93.98,93.95,93.97,3894
166,93.91,93.96,93.91,93.94,772
167,93.94,93.95,93.87,93.95,2924
168,93.93,93.96,93.93,93.95,1892
169,93.92,93.94,93.91,93.92,1300
170,93.84,93.92,93.84,93.9039,3544
171,93.87,93.87,93.85,93.85,2290
172,93.9,93.9,93.87,93.87,900
173,93.89,93.9,93.89,93.9,1202
174,93.885,93.89,93.85,93.87,2900
175,93.87,93.9,93.86,93.9,2883
176,93.84,93.88,93.84,93.88,900
177,93.85,93.85,93.83,93.85,500
178,93.8514,93.8514,93.84,93.84,1145
179,93.8,93.84,93.8,93.83,500
180,93.77,93.82,93.75,93.82,3275
181,93.81,93.81,93.77,93.78,5471
182,93.791,93.805,93.79,93.805,1080
183,93.83,93.83,93.79,93.79,1095
184,93.8,93.83,93.8,93.82,500
185,93.76,93.85,93.76,93.83,2513
186,93.76,93.76,93.76,93.76,200
187,93.8,93.8,93.77,93.77,1665
188,93.81,93.82,93.81,93.81,900
189,93.8,93.8,93.8,93.8,100
190,93.81,93.81,93.78,93.78,1400
191,93.84,93.84,93.81,93.81,900
192,93.83,93.86,93.82,93.86,900
193,93.83,93.85,93.83,93.84,1300
194,93.81,93.84,93.81,93.84,800
195,93.78,93.8102,93.78,93.81,500
196,93.84,93.84,93.8,93.8,1700
197,93.8,93.8372,93.8,93.8262,911
198,93.7801,93.7962,93.77,93.7962,1261
199,93.8599,93.8599,93.78,93.78,1700
200,93.85,93.86,93.84,93.86,900
201,93.83,93.86,93.8,93.844,2681
202,93.86,93.88,93.8306,93.85,1747
203,93.88,93.92,93.8746,93.8916,2932
204,93.78,93.88,93.78,93.88,3409
205,93.822,93.84,93.82,93.82,2490
206,93.9,93.92,93.84,93.84,2432
207,93.86,93.92,93.86,93.92,3450
208,93.9,93.92,93.87,93.87,1591
209,93.89,93.89,93.88,93.88,500
210,93.86,93.86,93.847,93.85,861
211,93.81,93.85,93.81,93.82,2472
212,93.8,93.8,93.79,93.8,900
213,93.72,93.82,93.72,93.8,3220
214,93.76,93.78,93.72,93.72,4092
215,93.71,93.75,93.7,93.75,8106
216,93.68,93.72,93.68,93.7,3348
217,93.66,93.7,93.66,93.69,1546
218,93.7,93.7,93.67,93.67,5300
219,93.6802,93.7,93.67,93.7,4393
220,93.67,93.7,93.67,93.69,600
221,93.66,93.685,93.66,93.685,808
222,93.67,93.7,93.66,93.66,3180
223,93.71,93.72,93.675,93.6789,4300
224,93.71,93.71,93.66,93.7,1350
225,93.81,93.82,93.7,93.7,6613
226,93.78,93.83,93.77,93.78,2436
227,93.83,93.83,93.77,93.78,800
228,93.8,93.8017,93.76,93.8017,2187
229,93.8164,93.8164,93.8,93.81,1278
230,93.79,93.81,93.79,93.81,2201
231,93.81,93.815,93.81,93.815,255
232,93.81,93.8265,93.81,93.8265,2875
233,93.82,93.82,93.8,93.81,3004
234,93.84,93.84,93.82,93.82,2601
235,93.85,93.86,93.84,93.8468,1610
236,93.84,93.87,93.83,93.86,4795
237,93.84,93.87,93.84,93.85,800
238,93.89,93.89,93.84,93.84,1198
239,93.96,93.96,93.88,93.88,3950
240,93.95,93.965,93.93,93.95,1767
241,93.94,93.95,93.94,93.94,900
242,93.88,93.9215,93.88,93.91,700
243,93.915,93.92,93.9,93.9,1000
244,93.89,93.95,93.89,93.93,3800
245,93.96,93.96,93.88,93.88,700
246,93.929,93.98,93.91,93.93,4065
247,93.98,93.98,93.95,93.95,600
248,93.91,93.94,93.91,93.94,1000
249,93.89,93.9,93.89,93.9,700
250,93.92,93.92,93.91,93.92,1806
251,93.9403,93.97,93.9403,93.95,1800
252,93.94,93.97,93.94,93.97,534
253,93.88,93.94,93.88,93.94,1600
254,93.9,93.9,93.851,93.851,760
255,93.88,93.9,93.88,93.9,8069
256,93.88,93.89,93.87,93.87,945
257,93.9,93.9,93.89,93.89,7270
258,93.9,93.91,93.89,93.9,10200
259,93.9,93.91,93.89,93.9,6449
260,93.95,93.98,93.9,93.9,5300
261,93.92,93.96,93.92,93.96,800
262,94,94,93.96,93.96,2846
263,93.98,94,93.98,94,2000
264,93.92,93.97,93.89,93.97,7800
265,93.96,93.96,93.94,93.94,1600
266,94.02,94.02,93.98,93.98,849
267,94.04,94.06,94.01,94.03,2200
268,94.03,94.08,94.03,94.04,3500
269,94.07,94.11,94.03,94.03,3128
270,94.05,94.08,94.04,94.06,1500
271,94.05,94.06,93.99,94.05,4582
272,94.08,94.08,94.02,94.04,3300
273,94.07,94.1199,94.07,94.08,5217
274,94.05,94.07,94.02,94.07,3300
275,93.9993,94.07,93.98,94.05,19480
276,94,94,93.97,94,4042
277,94.02,94.02,94,94,1115
278,94.04,94.08,94.01,94.03,5320
279,94.06,94.08,94.01,94.04,5250
280,94.05,94.085,94.04,94.085,1185
281,94.03,94.06,94.03,94.04,3101
282,94.08,94.08,94,94.03,3751
283,94.03,94.08,94.02,94.08,3635
284,94.06,94.11,94.02,94.02,4782
285,94.09,94.1,94.01,94.04,9589
286,94.01,94.11,94.01,94.09,8629
287,94.05,94.06,94.03,94.04,2300
288,94.115,94.115,94.05,94.06,4392
289,94.085,94.13,94.08,94.115,7215
290,94.01,94.08,93.99,94.08,9458
291,94.06,94.06,94.02,94.04,4105
292,94.06,94.06,94.02,94.02,1600
293,94,94.06,94,94.04,1900
294,94.05,94.05,93.99,94,3619
295,94.025,94.06,94.02,94.04,7000
296,94.07,94.07,94.03,94.03,7850
297,94.02,94.05,94.02,94.05,4035
298,94.05,94.06,93.99,94.02,5206
299,94.02,94.07,94,94.06,4070
300,94.07,94.07,94.006,94.01,8970
301,94.09,94.11,94.06,94.08,8950
302,94.11,94.13,94.08,94.1,3400
303,94.11,94.13,94.08,94.13,4300
304,94.09,94.12,94.07,94.08,4514
305,94.11,94.12,94.11,94.11,3257
306,94.05,94.1,94.05,94.1,3990
307,94.03,94.06,94.02,94.04,3900
308,94.015,94.05,93.995,94.03,10967
309,94.01,94.02,93.98,94.01,9712
310,94.04,94.08,94,94.02,5658
311,93.98,94.03,93.98,94.03,4940
312,93.95,93.98,93.95,93.9704,2066
313,93.98,93.98,93.945,93.945,4700
314,94,94,93.97,93.99,4825
315,94.005,94.01,93.9769,93.99,7963
316,93.99,94.01,93.99,94,1300
317,93.95,93.995,93.95,93.97,4688
318,93.94,93.97,93.93,93.95,2900
319,93.9575,93.97,93.94,93.94,10341
320,93.94,93.97,93.94,93.96,9300
321,93.95,93.97,93.94,93.97,6501
322,93.96,93.97,93.95,93.96,5912
323,93.99,93.99,93.96,93.965,4855
324,93.94,93.99,93.94,93.985,5778
325,93.95,93.96,93.93,93.94,2999
326,93.9,93.96,93.9,93.95,5154
327,93.89,93.94,93.89,93.9,9597
328,93.88,93.9,93.87,93.87,2145
329,93.92,93.92,93.88,93.9,3200
330,93.82,93.94,93.82,93.92,3487
331,93.78,93.84,93.7601,93.83,3940
332,93.82,93.83,93.81,93.81,1500
333,93.795,93.83,93.78,93.83,8370
334,93.76,93.81,93.75,93.79,8118
335,93.75,93.79,93.75,93.75,2348
336,93.6871,93.77,93.6871,93.77,5015
337,93.73,93.74,93.69,93.7,4900
338,93.77,93.81,93.72,93.72,7308
339,93.64,93.78,93.64,93.78,16126
340,93.67,93.696,93.6,93.63,7235
341,93.55,93.67,93.52,93.67,8096
342,93.56,93.6,93.54,93.54,14600
343,93.59,93.61,93.53,93.55,19556
344,93.57,93.645,93.57,93.59,9873
345,93.61,93.62,93.56,93.57,4621
346,93.67,93.67,93.61,93.61,4929
347,93.65,93.69,93.62,93.69,4820
348,93.67,93.68,93.665,93.665,512
349,93.68,93.69,93.655,93.67,7362
350,93.85,93.85,93.68,93.69,5783
351,93.84,93.88,93.83,93.84,8230
352,93.89,93.94,93.86,93.86,8140
353,93.89,93.92,93.89,93.9,3100
354,93.91,93.91,93.85,93.87,4054
355,93.885,93.91,93.86,93.91,4616
356,93.895,93.94,93.89,93.895,5501
357,93.83,93.895,93.83,93.88,3289
358,93.8,93.85,93.79,93.83,4559
359,93.83,93.865,93.82,93.82,6584
360,93.76,93.88,93.76,93.82,6010
361,93.81,93.81,93.77,93.78,4667
362,93.78,93.8193,93.75,93.8,21390
363,93.8,93.8,93.76,93.77,8129
364,93.75,93.81,93.75,93.8,6931
365,93.77,93.77,93.72,93.73,8773
366,93.78,93.82,93.74,93.77,8300
367,93.8,93.81,93.77,93.78,1900
368,93.89,93.9,93.8,93.8,8710
369,93.92,93.93,93.9,93.91,6802
370,93.83,93.925,93.83,93.91,9955
371,93.885,93.8998,93.845,93.86,9363
372,93.9,93.92,93.87,93.89,7822
373,93.86,93.895,93.83,93.89,7279
374,93.88,93.9,93.83,93.86,16460
375,93.98,94.01,93.8503,93.89,21244
376,94.01,94.01,93.91,93.98,17741
377,93.98,94.01,93.95,94,9924
378,93.98,94.01,93.97,93.98,10184
379,93.99,94,93.9538,93.97,8247
380,93.98,94.02,93.97,93.98,21085
381,93.94,93.98,93.9351,93.98,6047
382,93.96,93.98,93.94,93.95,12155
383,93.93,93.95,93.92,93.95,6884
384,93.93,93.94,93.9,93.92,13639
385,93.92,93.94,93.87,93.94,21430
386,93.95,93.97,93.93,93.93,18951
387,93.92,93.96,93.9,93.95,14309
388,93.95,93.95,93.9,93.93,22512
389,93.82,93.97,93.77,93.95,167598
