PPG,PPG Industries,Materials,8,Specialty Chemicals,27691559697,1222057
a1495200600,105.72,105.72,105.11,105.11,91804
1,105.47,105.62,105.43,105.49,845
2,105.65,105.88,105.42,105.59,2104
6,105.68,105.68,105.35,105.35,1509
7,105.93,105.99,105.595,105.67,12200
8,105.885,105.885,105.8,105.8,400
9,106.0601,106.12,105.91,105.94,2416
10,106.36,106.36,106.08,106.18,5300
11,106.2,106.32,106.19,106.3,3500
12,106.35,106.35,106.21,106.21,2800
13,106.12,106.34,106.06,106.305,1800
14,105.95,106.07,105.95,106.05,1039
15,106.08,106.11,105.94,105.94,1400
16,106.204,106.204,106.08,106.08,500
17,106.17,106.21,106.12,106.195,3800
18,106.02,106.17,106,106.17,2750
19,106.16,106.18,106.065,106.065,1700
20,106.155,106.155,106.155,106.155,100
21,106.12,106.17,106.12,106.17,1100
22,106.2,106.2,106.14,106.16,700
23,106.33,106.33,106.2,106.22,1800
24,106.3,106.31,106.25,106.27,4653
25,106.295,106.295,106.295,106.295,100
26,106.295,106.295,106.25,106.25,300
27,106.33,106.33,106.33,106.33,100
28,106.3,106.3,106.25,106.29,2400
29,106.27,106.33,106.26,106.26,4194
30,106.2744,106.28,106.2744,106.28,200
31,106.43,106.464,106.26,106.28,7268
32,106.45,106.45,106.405,106.415,2253
33,106.43,106.46,106.41,106.46,3633
34,106.425,106.44,106.39,106.42,2200
35,106.46,106.46,106.4,106.4,5385
36,106.54,106.54,106.47,106.48,1800
37,106.53,106.53,106.48,106.5,1300
38,106.5,106.51,106.48,106.51,1200
39,106.545,106.56,106.5,106.5,2909
40,106.64,106.64,106.545,106.545,27300
41,106.66,106.66,106.63,106.63,500
42,106.74,106.74,106.68,106.68,1333
43,106.77,106.77,106.73,106.74,900
44,106.75,106.8,106.74,106.8,2300
45,106.8,106.8,106.69,106.75,3300
46,106.8,106.822,106.78,106.81,855
48,106.84,106.84,106.7926,106.7926,3400
49,106.88,106.88,106.83,106.83,3285
50,106.85,106.87,106.85,106.87,410
51,106.85,106.85,106.83,106.83,1564
52,106.88,106.88,106.84,106.8655,300
53,106.85,106.85,106.85,106.85,200
54,106.85,106.87,106.82,106.87,1400
55,106.85,106.85,106.82,106.82,1309
56,106.92,106.92,106.84,106.85,1100
57,106.9795,106.9795,106.92,106.92,842
58,107,107.02,106.96,106.96,4688
59,107.01,107.03,107,107,1597
60,106.99,107,106.96,107,3039
61,106.92,107,106.92,106.995,1700
62,106.85,106.87,106.84,106.87,410
63,106.88,106.9,106.84,106.84,1500
65,106.85,106.89,106.85,106.88,3902
66,106.81,106.8549,106.81,106.8549,831
67,106.85,106.85,106.8,106.8,4400
68,106.85,106.85,106.85,106.85,200
69,106.85,106.86,106.85,106.86,800
70,106.85,106.85,106.85,106.85,200
71,106.85,106.86,106.85,106.86,500
72,106.845,106.87,106.82,106.85,4912
73,106.8,106.83,106.79,106.83,1144
74,106.76,106.8,106.75,106.8,3200
75,106.75,106.76,106.75,106.76,500
76,106.86,106.86,106.77,106.77,3500
77,106.84,106.87,106.84,106.85,1600
78,106.83,106.84,106.83,106.84,1000
79,106.83,106.83,106.83,106.83,300
80,106.81,106.83,106.81,106.81,400
81,106.79,106.85,106.79,106.85,2497
82,106.81,106.81,106.7803,106.79,458
83,106.87,106.87,106.8,106.81,3236
84,106.84,106.84,106.84,106.84,100
85,106.81,106.83,106.81,106.83,600
86,106.81,106.83,106.8,106.81,1365
88,106.83,106.83,106.79,106.82,1200
89,106.84,106.84,106.84,106.84,200
90,106.83,106.85,106.83,106.83,1309
91,106.81,106.84,106.81,106.84,1300
92,106.85,106.85,106.8,106.8,1828
93,106.79,106.83,106.77,106.83,2400
95,106.77,106.77,106.77,106.77,200
96,106.8,106.8,106.76,106.76,200
97,106.79,106.81,106.77,106.77,1310
98,106.82,106.82,106.79,106.79,200
99,106.87,106.89,106.8,106.82,4647
100,106.84,106.865,106.83,106.86,1300
101,106.81,106.81,106.78,106.81,925
102,106.79,106.8,106.79,106.8,2200
103,106.82,106.82,106.82,106.82,544
104,106.86,106.9,106.86,106.88,500
105,106.87,106.879,106.83,106.879,500
106,106.82,106.83,106.82,106.83,400
107,106.81,106.82,106.81,106.82,200
108,106.78,106.83,106.78,106.8,4843
109,106.79,106.79,106.78,106.78,400
110,106.77,106.8,106.76,106.78,1500
111,106.8,106.8,106.775,106.775,752
112,106.78,106.82,106.78,106.81,2200
113,106.78,106.78,106.78,106.78,100
114,106.795,106.8,106.75,106.75,2100
115,106.795,106.795,106.795,106.795,100
116,106.76,106.8,106.76,106.78,1425
117,106.76,106.8,106.76,106.77,1000
118,106.75,106.75,106.75,106.75,200
119,106.79,106.79,106.74,106.75,1550
120,106.79,106.8,106.78,106.78,2690
121,106.83,106.83,106.8,106.8,1300
122,106.79,106.83,106.79,106.83,600
123,106.75,106.78,106.73,106.78,904
124,106.76,106.76,106.745,106.745,504
125,106.79,106.79,106.76,106.76,900
126,106.785,106.8,106.78,106.795,1100
127,106.83,106.8324,106.79,106.79,1302
128,106.82,106.84,106.82,106.84,1900
129,106.82,106.83,106.82,106.82,685
130,106.83,106.83,106.83,106.83,100
131,106.84,106.85,106.82,106.83,3500
132,106.89,106.91,106.84,106.84,3068
133,106.9,106.9,106.866,106.89,3346
134,106.93,106.93,106.91,106.91,500
135,106.8642,106.92,106.8642,106.92,1851
136,106.89,106.89,106.89,106.89,100
137,106.86,106.87,106.86,106.87,360
138,106.92,106.92,106.87,106.87,1482
139,106.9295,106.9295,106.9,106.9024,10209
141,106.93,106.93,106.9,106.9,400
143,106.93,106.93,106.93,106.93,1000
144,106.92,106.92,106.92,106.92,100
145,106.94,106.96,106.94,106.95,983
146,106.95,106.95,106.94,106.94,300
147,106.93,106.93,106.93,106.93,500
148,106.93,106.95,106.93,106.95,600
149,106.91,106.94,106.9,106.9201,1376
150,106.9,106.92,106.9,106.92,300
151,106.95,106.95,106.92,106.92,1161
152,106.98,106.98,106.945,106.95,9231
154,107,107,107,107,100
155,107,107,106.98,107,338
156,106.97,106.97,106.97,106.97,500
157,107,107,106.989,106.99,1400
158,106.985,107.01,106.98,107.01,600
159,107.01,107.04,106.99,106.99,1200
160,107.13,107.13,106.995,107.02,4954
161,107.07,107.1,107.06,107.09,2843
162,107.09,107.11,107.08,107.08,1895
165,107.09,107.09,107.0545,107.0545,1348
166,107.1199,107.1199,107.1199,107.1199,100
167,107.02,107.07,107.02,107.07,1800
168,107.03,107.03,107.03,107.03,300
169,107.0459,107.06,107.04,107.04,2573
170,107.03,107.03,107.03,107.03,500
171,107,107.0299,107,107.02,1127
172,107,107,107,107,200
173,106.96,107,106.96,107,800
174,106.96,106.96,106.96,106.96,200
175,106.93,106.94,106.93,106.94,500
176,106.89,106.91,106.89,106.91,600
177,106.92,106.92,106.91,106.91,1029
178,106.94,106.94,106.94,106.94,100
179,106.87,106.91,106.87,106.91,1000
180,106.89,106.89,106.87,106.87,300
181,106.88,106.8892,106.87,106.87,700
182,106.87,106.87,106.87,106.87,200
183,106.93,106.93,106.89,106.905,1810
184,106.94,106.94,106.92,106.92,900
185,106.95,106.95,106.92,106.92,200
186,106.89,106.94,106.89,106.94,1000
187,106.89,106.8929,106.88,106.89,498
188,106.88,106.9,106.88,106.9,1500
189,106.87,106.87,106.87,106.87,300
190,106.86,106.86,106.86,106.86,200
191,106.83,106.85,106.83,106.85,1200
193,106.88,106.88,106.83,106.83,1100
194,106.84,106.9,106.84,106.9,1300
195,106.8268,106.8268,106.8268,106.8268,2000
197,106.81,106.81,106.81,106.81,100
198,106.818,106.83,106.818,106.83,1100
199,106.82,106.82,106.81,106.81,200
200,106.89,106.89,106.84,106.84,1270
201,106.87,106.88,106.87,106.88,1000
202,106.88,106.88,106.87,106.87,300
203,106.86,106.87,106.835,106.87,1900
204,106.81,106.82,106.81,106.82,200
206,106.875,106.88,106.84,106.84,500
207,106.88,106.88,106.87,106.87,200
208,106.9,106.9,106.86,106.86,200
209,106.89,106.89,106.8784,106.8784,325
210,106.835,106.86,106.835,106.86,1615
211,106.81,106.82,106.81,106.82,400
212,106.8,106.81,106.8,106.81,600
213,106.8,106.8,106.75,106.78,1594
214,106.75,106.76,106.75,106.76,400
215,106.79,106.8,106.75,106.75,1062
216,106.74,106.82,106.73,106.82,2400
217,106.75,106.77,106.75,106.76,1400
218,106.74,106.75,106.74,106.75,1300
219,106.75,106.7599,106.75,106.75,300
220,106.77,106.77,106.75,106.75,700
221,106.79,106.79,106.76,106.78,1600
222,106.75,106.8,106.75,106.8,1000
223,106.75,106.7598,106.75,106.7598,400
224,106.735,106.74,106.735,106.74,200
225,106.735,106.735,106.735,106.735,400
226,106.75,106.75,106.735,106.735,600
228,106.72,106.75,106.72,106.75,700
229,106.76,106.76,106.72,106.72,1564
230,106.75,106.76,106.74,106.74,897
231,106.77,106.77,106.74,106.76,1838
232,106.76,106.78,106.76,106.78,200
234,106.75,106.76,106.75,106.76,1269
235,106.75,106.75,106.75,106.75,100
236,106.755,106.76,106.75,106.76,660
237,106.72,106.755,106.72,106.75,1500
239,106.72,106.7326,106.72,106.7326,500
240,106.68,106.71,106.68,106.71,800
241,106.67,106.69,106.67,106.68,600
242,106.64,106.67,106.64,106.67,700
243,106.63,106.65,106.62,106.63,1923
244,106.63,106.63,106.63,106.63,200
245,106.61,106.62,106.61,106.62,400
246,106.6,106.63,106.6,106.63,900
247,106.62,106.63,106.62,106.62,1009
248,106.64,106.64,106.64,106.64,600
250,106.64,106.655,106.64,106.65,1300
251,106.62,106.65,106.62,106.65,670
252,106.59,106.62,106.59,106.61,1200
253,106.61,106.61,106.595,106.595,966
254,106.585,106.6,106.57,106.6,1100
255,106.62,106.62,106.6,106.6,1185
256,106.65,106.65,106.63,106.63,776
257,106.625,106.655,106.6,106.64,2529
258,106.61,106.64,106.6,106.63,3700
259,106.62,106.62,106.62,106.62,300
260,106.6,106.6132,106.6,106.6132,1164
261,106.61,106.61,106.61,106.61,1200
263,106.63,106.64,106.6,106.64,1300
264,106.64,106.64,106.61,106.61,900
266,106.6101,106.6101,106.6101,106.6101,100
268,106.61,106.61,106.61,106.61,400
269,106.61,106.61,106.59,106.6,1202
270,106.62,106.62,106.6,106.6,716
272,106.59,106.59,106.59,106.59,200
273,106.65,106.65,106.63,106.64,1388
274,106.64,106.64,106.64,106.64,100
275,106.61,106.63,106.61,106.63,828
276,106.6,106.63,106.6,106.62,830
277,106.61,106.61,106.61,106.61,937
278,106.6013,106.6087,106.59,106.59,799
279,106.605,106.62,106.6,106.6,1250
280,106.5861,106.59,106.58,106.59,707
281,106.6,106.61,106.6,106.6,950
282,106.59,106.59,106.59,106.59,100
283,106.59,106.62,106.59,106.615,1000
284,106.61,106.61,106.5857,106.59,1663
285,106.6235,106.63,106.6,106.6,2210
286,106.645,106.66,106.62,106.63,3978
287,106.67,106.67,106.65,106.65,1378
288,106.66,106.67,106.66,106.67,300
289,106.68,106.68,106.655,106.655,1200
290,106.68,106.7,106.68,106.685,1567
291,106.7,106.7,106.6999,106.6999,265
292,106.68,106.7,106.68,106.7,200
293,106.69,106.69,106.68,106.685,600
294,106.71,106.71,106.69,106.7,600
295,106.64,106.69,106.64,106.69,4187
296,106.6452,106.6452,106.6452,106.6452,114
297,106.67,106.67,106.65,106.65,626
299,106.69,106.69,106.68,106.68,900
300,106.7,106.7,106.7,106.7,391
301,106.68,106.69,106.68,106.69,500
302,106.68,106.68,106.65,106.67,2506
303,106.7143,106.7143,106.69,106.69,746
304,106.73,106.73,106.72,106.72,966
305,106.74,106.74,106.74,106.74,474
306,106.74,106.74,106.74,106.74,100
309,106.72,106.75,106.72,106.75,300
310,106.75,106.75,106.73,106.73,800
311,106.7301,106.76,106.7301,106.75,300
312,106.76,106.76,106.7496,106.7496,249
313,106.73,106.74,106.71,106.74,2125
314,106.745,106.75,106.72,106.72,800
315,106.76,106.76,106.76,106.76,100
316,106.77,106.77,106.76,106.76,985
317,106.745,106.77,106.745,106.77,2100
318,106.74,106.74,106.74,106.74,100
319,106.75,106.76,106.74,106.74,3600
320,106.73,106.75,106.73,106.74,493
321,106.75,106.75,106.75,106.75,100
322,106.75,106.75,106.73,106.73,400
323,106.73,106.73,106.73,106.73,100
324,106.76,106.76,106.74,106.75,1618
325,106.72,106.755,106.72,106.74,1210
326,106.66,106.71,106.66,106.71,1403
327,106.6701,106.7,106.65,106.65,1708
328,106.67,106.67,106.67,106.67,200
329,106.66,106.66,106.66,106.66,100
330,106.66,106.68,106.66,106.68,500
331,106.63,106.67,106.63,106.65,1648
332,106.61,106.63,106.61,106.61,800
333,106.59,106.59,106.59,106.59,200
334,106.62,106.62,106.58,106.6,3808
335,106.59,106.63,106.59,106.6087,557
336,106.6,106.6,106.6,106.6,300
337,106.55,106.59,106.53,106.59,3382
338,106.47,106.52,106.47,106.52,700
339,106.52,106.52,106.475,106.49,3130
340,106.35,106.49,106.35,106.49,3300
341,106.375,106.375,106.325,106.325,2707
342,106.26,106.37,106.26,106.37,1600
343,106.29,106.31,106.25,106.25,1160
344,106.31,106.32,106.31,106.32,500
345,106.29,106.31,106.27,106.3,1800
346,106.31,106.34,106.295,106.295,2000
347,106.33,106.33,106.29,106.29,1099
348,106.3,106.32,106.3,106.32,500
349,106.25,106.29,106.24,106.29,2743
350,106.21,106.24,106.21,106.24,1300
351,106.24,106.25,106.2,106.22,3600
352,106.215,106.23,106.21,106.23,1100
353,106.38,106.38,106.19,106.21,12465
354,106.355,106.38,106.35,106.35,700
355,106.39,106.41,106.37,106.38,1000
356,106.41,106.41,106.38,106.41,684
357,106.43,106.43,106.38,106.4,2200
358,106.435,106.435,106.435,106.435,501
359,106.39,106.435,106.38,106.435,3900
360,106.35,106.42,106.35,106.4,3105
361,106.29,106.34,106.29,106.34,2300
362,106.2765,106.3,106.26,106.26,2600
363,106.34,106.34,106.28,106.28,4890
364,106.36,106.36,106.33,106.33,2580
365,106.41,106.4368,106.375,106.38,6600
366,106.43,106.43,106.4,106.4,2700
367,106.5,106.51,106.42,106.42,8496
368,106.61,106.61,106.52,106.53,3302
369,106.625,106.63,106.6,106.6,2700
370,106.77,106.77,106.6,106.6,4687
371,106.78,106.79,106.73,106.755,7476
372,106.8,106.8,106.78,106.78,2800
373,106.82,106.82,106.79,106.81,5890
374,106.8,106.82,106.79,106.82,10229
375,106.67,106.88,106.67,106.81,12150
376,106.63,106.71,106.62,106.68,2957
377,106.5,106.59,106.5,106.59,3137
378,106.5,106.52,106.48,106.5,6168
379,106.535,106.55,106.49,106.49,4900
380,106.545,106.56,106.52,106.52,2289
381,106.605,106.61,106.545,106.545,3406
382,106.61,106.62,106.6,106.6,1300
383,106.57,106.6,106.57,106.6,3406
384,106.53,106.59,106.53,106.59,1650
385,106.5,106.54,106.5,106.54,6650
386,106.515,106.53,106.5,106.51,5830
387,106.545,106.55,106.51,106.51,4691
388,106.525,106.55,106.51,106.55,9764
389,106.72,106.74,106.51,106.53,37364
390,106.73,106.78,106.695,106.73,39762
