PPG,PPG Industries,Materials,8,Specialty Chemicals,26568739057,1346143
a1504877400,103.59,103.63,103.59,103.63,12545
1,103.28,103.64,103.085,103.64,12594
2,102.9,103.31,102.9,103.28,11239
3,101.88,102.92,101.85,102.92,22012
4,102.46,102.47,101.93,101.96,5400
5,102.25,102.34,102.25,102.34,200
6,101.91,102.57,101.71,102.41,19785
7,101.99,102.09,101.99,102.08,600
8,101.91,102,101.61,102,1715
9,102.09,102.1,101.79,101.91,5081
10,101.97,102.1799,101.96,102.1799,600
11,102.02,102.03,101.885,101.95,4596
12,102.15,102.19,102.135,102.1353,2181
13,102.4,102.42,102.18,102.18,1900
14,102.5,102.52,102.41,102.46,906
15,102.45,102.46,102.45,102.46,500
16,102.36,102.51,102.36,102.47,3477
17,102.19,102.38,102.19,102.38,5078
18,102.14,102.205,102.12,102.205,2900
19,102.15,102.18,102.12,102.14,1140
20,102.13,102.24,102.13,102.15,2651
21,102.13,102.1948,102.13,102.1948,989
22,102.16,102.27,102.14,102.18,5700
23,102.09,102.23,102.09,102.2,6166
24,102.1788,102.19,102.09,102.09,1077
25,102.1699,102.17,102.1,102.17,7059
26,102.12,102.15,102.1,102.135,400
27,102.195,102.21,102.15,102.15,11813
28,102.2,102.255,102.2,102.21,9062
29,102.23,102.26,102.185,102.23,17280
30,102.276,102.28,102.21,102.23,4176
31,102.3,102.32,102.235,102.265,5993
32,102.37,102.37,102.3,102.325,6075
33,102.3,102.35,102.29,102.34,1900
34,102.31,102.32,102.31,102.32,300
35,102.36,102.4,102.33,102.33,3747
36,102.44,102.45,102.35,102.36,11826
37,102.37,102.48,102.35,102.45,9079
38,102.37,102.375,102.36,102.37,1300
39,102.41,102.43,102.34,102.36,3247
40,102.45,102.46,102.4,102.4086,2619
41,102.48,102.48,102.4,102.44,1600
42,102.49,102.52,102.45,102.49,2416
43,102.51,102.52,102.4832,102.4832,1326
44,102.68,102.69,102.5,102.515,17590
45,102.72,102.72,102.665,102.665,912
46,102.65,102.74,102.64,102.74,1235
47,102.71,102.71,102.66,102.69,2843
49,102.74,102.75,102.71,102.71,1700
50,102.69,102.725,102.665,102.725,4865
51,102.75,102.75,102.62,102.685,2600
52,102.7399,102.75,102.71,102.75,476
53,102.72,102.78,102.71,102.74,2374
55,102.95,102.96,102.7499,102.7499,3166
56,102.86,102.96,102.86,102.96,900
57,102.87,102.9,102.84,102.89,2366
58,102.89,102.91,102.86,102.8933,2201
59,102.74,102.92,102.74,102.89,3800
60,102.765,102.7856,102.74,102.7856,706
61,102.72,102.77,102.67,102.77,3437
62,102.86,102.86,102.68,102.68,5287
63,102.8599,102.89,102.82,102.8899,2477
64,102.83,102.86,102.81,102.841,3998
65,102.865,102.89,102.85,102.85,2029
66,102.95,102.95,102.88,102.88,1000
67,103,103.03,102.96,102.96,3494
68,103.025,103.035,103.005,103.025,1400
69,102.98,103.04,102.95,103.03,2405
70,102.97,103,102.97,102.97,800
71,103.04,103.04,102.94,102.97,5153
72,103.05,103.05,103.025,103.025,380
73,103.07,103.07,103.035,103.035,801
74,103.07,103.07,103.02,103.04,2758
75,103.07,103.11,103.07,103.08,2200
76,103.045,103.08,103.045,103.07,1000
77,103.17,103.18,103,103.03,9025
78,103.15,103.18,103.04,103.15,6300
79,103.18,103.2,103.07,103.19,6047
80,103.14,103.21,103.04,103.2,6900
81,103.06,103.17,103.06,103.111,1700
82,103.18,103.18,103.02,103.06,4186
83,103.09,103.17,103.09,103.16,4102
84,103.08,103.08,103.04,103.08,3057
85,103.11,103.12,103.1,103.1,400
86,103.13,103.19,103.1,103.11,5530
87,103.26,103.26,103.14,103.15,2971
88,103.22,103.22,103.22,103.22,600
89,103.37,103.37,103.24,103.24,1921
90,103.42,103.46,103.35,103.37,4435
91,103.45,103.45,103.45,103.45,200
92,103.445,103.4599,103.44,103.4599,875
93,103.57,103.57,103.425,103.425,1500
94,103.7,103.7,103.56,103.57,2041
95,103.6,103.7,103.57,103.65,2209
96,103.62,103.62,103.57,103.57,2170
97,103.638,103.65,103.57,103.58,2283
98,103.65,103.65,103.6,103.6,334
99,103.64,103.64,103.64,103.64,200
100,103.6,103.65,103.6,103.64,3505
101,103.57,103.635,103.57,103.62,2011
102,103.58,103.59,103.58,103.59,400
103,103.57,103.58,103.57,103.5704,850
104,103.57,103.57,103.57,103.57,200
105,103.65,103.65,103.53,103.575,4259
106,103.615,103.65,103.61,103.64,2583
107,103.6,103.63,103.6,103.615,1706
108,103.58,103.62,103.58,103.61,1319
109,103.65,103.65,103.58,103.58,1800
110,103.63,103.65,103.62,103.64,1910
111,103.66,103.66,103.6301,103.635,2113
112,103.7336,103.75,103.65,103.65,2891
113,103.78,103.78,103.68,103.735,2186
114,103.75,103.79,103.73,103.74,1200
115,103.88,103.94,103.75,103.765,3949
116,103.7828,103.85,103.77,103.85,3851
117,103.76,103.79,103.76,103.79,400
118,103.75,103.75,103.75,103.75,300
119,103.73,103.76,103.73,103.76,300
120,103.74,103.74,103.74,103.74,100
121,103.77,103.78,103.75,103.75,1319
122,103.775,103.7899,103.76,103.76,1984
123,103.73,103.775,103.72,103.775,2088
124,103.75,103.75,103.72,103.72,1400
125,103.78,103.78,103.73,103.74,2774
126,103.84,103.84,103.7779,103.7779,1028
127,103.81,103.815,103.8,103.81,1105
128,103.78,103.79,103.78,103.79,400
129,103.73,103.7732,103.73,103.7732,700
130,103.715,103.725,103.71,103.725,300
131,103.73,103.73,103.72,103.73,1201
132,103.77,103.77,103.7295,103.7328,1134
133,103.78,103.78,103.775,103.775,1094
134,103.755,103.77,103.75,103.77,2300
135,103.75,103.77,103.75,103.76,1300
136,103.76,103.76,103.74,103.74,600
137,103.75,103.75,103.7132,103.74,2000
138,103.73,103.7599,103.73,103.73,1722
139,103.72,103.75,103.72,103.72,1300
140,103.665,103.735,103.665,103.735,2006
141,103.66,103.67,103.66,103.66,680
142,103.67,103.7,103.66,103.66,1305
143,103.67,103.67,103.67,103.67,100
144,103.67,103.68,103.67,103.68,200
145,103.69,103.69,103.66,103.66,1197
146,103.66,103.69,103.66,103.685,300
148,103.65,103.66,103.65,103.66,600
149,103.67,103.68,103.65,103.665,2023
150,103.67,103.68,103.66,103.68,1400
151,103.7,103.7,103.64,103.64,1446
152,103.73,103.73,103.69,103.69,1102
153,103.75,103.75,103.72,103.74,8105
154,103.84,103.84,103.8,103.8,288
155,103.9,103.91,103.9,103.91,997
156,103.9,103.9,103.87,103.9,1400
157,103.85,103.87,103.83,103.87,900
158,103.76,103.8101,103.76,103.81,1150
159,103.65,103.75,103.49,103.72,34250
160,103.735,103.735,103.45,103.541,11095
161,103.74,103.77,103.69,103.73,800
163,103.75,103.75,103.75,103.75,100
165,103.725,103.75,103.71,103.75,1300
166,103.74,103.74,103.71,103.72,2891
167,103.73,103.74,103.73,103.7318,602
168,103.73,103.73,103.73,103.73,1005
169,103.8,103.8,103.73,103.73,1817
170,103.76,103.76,103.76,103.76,200
171,103.773,103.773,103.7401,103.76,895
172,103.75,103.78,103.74,103.78,700
173,103.76,103.77,103.76,103.76,700
174,103.7,103.76,103.675,103.76,2109
175,103.72,103.72,103.7,103.7,600
176,103.72,103.72,103.715,103.72,1226
177,103.73,103.73,103.72,103.72,1100
179,103.77,103.77,103.75,103.75,420
180,103.7,103.75,103.7,103.75,1100
181,103.69,103.7,103.69,103.7,400
182,103.61,103.64,103.61,103.64,1100
183,103.65,103.65,103.5912,103.5912,2005
184,103.78,103.82,103.67,103.67,1994
185,103.75,103.78,103.75,103.78,1200
186,103.7,103.74,103.67,103.74,900
187,103.7599,103.7599,103.67,103.72,1669
189,103.69,103.7,103.69,103.7,300
190,103.69,103.7,103.68,103.68,1800
191,103.7,103.7,103.695,103.7,1700
192,103.7,103.7,103.69,103.7,3400
193,103.69,103.69,103.68,103.69,400
194,103.69,103.69,103.69,103.69,400
195,103.69,103.7,103.69,103.69,3141
196,103.69,103.7,103.67,103.7,1280
197,103.65,103.69,103.65,103.69,1200
198,103.68,103.68,103.66,103.66,1600
199,103.69,103.69,103.69,103.69,700
201,103.69,103.69,103.69,103.69,600
202,103.69,103.7,103.68,103.68,1459
203,103.69,103.7,103.69,103.7,2075
204,103.71,103.71,103.7,103.71,5900
205,103.69,103.71,103.69,103.71,3905
206,103.73,103.73,103.7,103.7,2041
207,103.775,103.78,103.73,103.73,868
208,103.78,103.78,103.78,103.78,100
209,103.75,103.75,103.75,103.75,100
210,103.75,103.75,103.75,103.75,100
211,103.78,103.78,103.77,103.77,400
212,103.84,103.84,103.79,103.79,1000
213,103.83,103.85,103.82,103.85,1615
214,103.81,103.81,103.81,103.81,1174
215,103.81,103.81,103.8,103.81,1236
216,103.79,103.81,103.79,103.81,921
217,103.79,103.79,103.79,103.79,400
218,103.79,103.79,103.77,103.78,2175
219,103.81,103.81,103.79,103.79,1100
220,103.86,103.87,103.86,103.87,1000
221,103.84,103.84,103.84,103.84,100
222,103.86,103.86,103.84,103.84,500
224,103.86,103.89,103.85,103.86,1300
225,103.87,103.87,103.87,103.87,100
226,103.86,103.86,103.86,103.86,200
227,103.84,103.85,103.84,103.85,300
228,103.84,103.84,103.84,103.84,113
229,103.84,103.85,103.83,103.85,900
230,103.82,103.84,103.82,103.835,1200
231,103.83,103.83,103.82,103.82,595
233,103.82,103.82,103.82,103.82,400
234,103.8209,103.8209,103.82,103.82,200
235,103.84,103.84,103.83,103.83,1953
236,103.85,103.87,103.85,103.85,1600
237,103.88,103.88,103.86,103.86,803
238,103.86,103.86,103.86,103.86,200
239,103.87,103.87,103.82,103.86,1800
240,103.8629,103.87,103.8629,103.87,400
241,103.86,103.86,103.86,103.86,500
242,103.82,103.86,103.82,103.86,900
243,103.79,103.81,103.79,103.81,400
244,103.77,103.77,103.74,103.77,1200
245,103.74,103.76,103.74,103.76,800
246,103.76,103.77,103.75,103.75,1655
247,103.76,103.77,103.76,103.76,680
248,103.75,103.78,103.75,103.77,1930
249,103.79,103.79,103.79,103.79,100
250,103.78,103.79,103.78,103.78,700
251,103.76,103.79,103.76,103.77,500
252,103.76,103.77,103.76,103.77,300
253,103.73,103.73,103.73,103.73,100
254,103.72,103.73,103.7,103.73,1817
255,103.7199,103.7199,103.7199,103.7199,100
256,103.71,103.71,103.69,103.7,400
257,103.64,103.675,103.64,103.675,814
259,103.65,103.65,103.58,103.64,2471
261,103.67,103.68,103.665,103.6704,1100
262,103.74,103.74,103.66,103.66,1226
264,103.71,103.74,103.71,103.74,1316
265,103.71,103.73,103.71,103.73,2001
266,103.7633,103.7633,103.74,103.74,2081
267,103.7924,103.7924,103.77,103.77,400
268,103.82,103.86,103.8,103.81,2600
269,103.81,103.84,103.81,103.84,205
270,103.83,103.84,103.81,103.81,635
272,103.85,103.85,103.83,103.84,600
273,103.77,103.85,103.77,103.85,1700
274,103.7756,103.78,103.75,103.78,554
276,103.77,103.8,103.77,103.77,2039
277,103.79,103.79,103.79,103.79,800
278,103.8074,103.81,103.795,103.81,2872
279,103.78,103.79,103.78,103.79,600
281,103.81,103.81,103.81,103.81,400
282,103.79,103.79,103.79,103.79,300
283,103.81,103.82,103.8,103.8,2780
284,103.8,103.82,103.8,103.81,1305
285,103.81,103.82,103.8,103.8,900
286,103.81,103.83,103.79,103.83,1004
287,103.87,103.87,103.83,103.83,1969
288,103.92,103.92,103.87,103.87,2440
289,103.91,103.92,103.9,103.92,800
290,103.89,103.93,103.89,103.91,500
291,103.82,103.9,103.82,103.89,2259
292,103.81,103.83,103.81,103.82,1300
294,103.8268,103.83,103.82,103.8268,700
295,103.84,103.85,103.83,103.83,639
296,103.8,103.84,103.79,103.83,1708
297,103.8016,103.81,103.8,103.8043,718
298,103.83,103.84,103.81,103.81,2497
299,103.84,103.84,103.84,103.84,200
300,103.84,103.84,103.834,103.8354,1600
301,103.84,103.84,103.84,103.84,860
302,103.84,103.84,103.83,103.84,900
303,103.87,103.87,103.84,103.84,1779
304,103.86,103.87,103.85,103.87,905
305,103.86,103.87,103.86,103.86,500
306,103.84,103.869,103.84,103.86,6170
307,103.85,103.85,103.8379,103.84,616
308,103.84,103.84,103.8346,103.84,1300
310,103.82,103.84,103.82,103.84,1853
311,103.81,103.81,103.79,103.81,600
312,103.82,103.82,103.81,103.81,1200
313,103.82,103.82,103.81,103.8175,1117
314,103.85,103.85,103.82,103.82,2460
315,103.83,103.86,103.83,103.85,1333
316,103.82,103.85,103.82,103.85,500
317,103.81,103.82,103.81,103.82,1490
318,103.82,103.82,103.8,103.81,4555
319,103.77,103.81,103.77,103.8,1266
320,103.8,103.8,103.79,103.79,1300
321,103.8,103.82,103.8,103.82,768
322,103.81,103.82,103.805,103.82,1835
323,103.8,103.8,103.79,103.8,2705
324,103.8,103.8,103.8,103.8,600
325,103.8586,103.8586,103.81,103.81,1600
326,103.85,103.86,103.85,103.86,1120
327,103.83,103.83,103.83,103.83,200
328,103.83,103.83,103.82,103.83,1117
329,103.82,103.82,103.82,103.82,300
330,103.82,103.82,103.81,103.82,800
331,103.82,103.82,103.8,103.81,1603
332,103.84,103.85,103.83,103.83,800
333,103.84,103.85,103.83,103.84,2131
334,103.84,103.87,103.84,103.86,1474
335,103.83,103.83,103.83,103.83,500
336,103.82,103.83,103.82,103.82,636
337,103.82,103.83,103.819,103.82,2252
338,103.86,103.86,103.83,103.83,3248
339,103.82,103.86,103.82,103.86,1400
340,103.83,103.83,103.815,103.83,1375
341,103.82,103.83,103.82,103.83,810
342,103.805,103.82,103.8,103.82,1385
343,103.77,103.8,103.76,103.8,3237
344,103.71,103.75,103.71,103.75,1854
345,103.68,103.71,103.68,103.69,1716
346,103.69,103.69,103.68,103.68,1559
347,103.68,103.69,103.68,103.685,1605
348,103.65,103.68,103.64,103.68,4684
349,103.67,103.7,103.668,103.669,2909
350,103.67,103.69,103.67,103.67,1473
351,103.68,103.7,103.66,103.67,2300
352,103.66,103.68,103.66,103.68,600
353,103.695,103.695,103.67,103.67,1900
354,103.675,103.695,103.675,103.6905,1897
355,103.68,103.69,103.67,103.67,500
356,103.67,103.68,103.67,103.68,1951
357,103.66,103.66,103.66,103.66,500
358,103.66,103.67,103.61,103.64,4768
359,103.62,103.66,103.61,103.66,2640
360,103.6,103.625,103.6,103.62,2025
361,103.52,103.59,103.51,103.59,2778
362,103.5,103.53,103.5,103.5175,3307
363,103.52,103.53,103.5,103.53,1699
364,103.52,103.54,103.51,103.54,2312
365,103.52,103.53,103.51,103.53,1608
366,103.52,103.545,103.52,103.53,2605
367,103.54,103.54,103.51,103.51,2902
368,103.51,103.54,103.51,103.52,2050
369,103.5,103.53,103.5,103.51,21498
370,103.54,103.56,103.51,103.51,5769
371,103.54,103.55,103.53,103.53,2800
372,103.53,103.54,103.53,103.53,1912
373,103.55,103.55,103.54,103.54,1600
374,103.58,103.58,103.53,103.54,4214
375,103.5704,103.58,103.57,103.57,950
376,103.56,103.57,103.55,103.57,3049
377,103.59,103.6,103.56,103.56,3629
378,103.59,103.6,103.5797,103.6,3067
379,103.57,103.58,103.56,103.58,2382
380,103.55,103.57,103.54,103.57,4870
381,103.55,103.55,103.53,103.54,4577
382,103.55,103.5635,103.54,103.55,3671
383,103.56,103.56,103.54,103.55,2800
384,103.54,103.56,103.54,103.555,4032
385,103.53,103.55,103.51,103.55,11519
386,103.53,103.54,103.52,103.53,3463
387,103.62,103.62,103.52,103.525,12211
388,103.615,103.63,103.58,103.63,9516
389,103.63,103.63,103.605,103.61,5991
390,103.6,103.63,103.56,103.63,16846
