PPG,PPG Industries,Materials,8,Specialty Chemicals,27194549700,1327942
a1501248600,105.79,106.15,105.79,106.15,10420
1,106.2,106.26,106.075,106.1,1200
2,106.375,106.49,106.375,106.4,900
3,106.43,106.43,106.43,106.43,200
4,106.39,106.45,106.39,106.44,655
5,106.39,106.425,106.35,106.425,500
6,106.45,106.47,106.36,106.41,1721
7,106.41,106.45,106.4,106.45,1500
8,106.35,106.4,106.33,106.4,1857
9,106.32,106.45,106.32,106.43,2300
10,106.405,106.42,106.33,106.35,4320
11,106.37,106.42,106.35,106.41,4000
12,106.35,106.42,106.35,106.39,900
13,106.33,106.35,106.245,106.335,3000
14,106.33,106.37,106.32,106.36,2200
15,106.36,106.36,106.32,106.33,900
16,106.425,106.425,106.375,106.38,700
17,106.4,106.41,106.35,106.41,8100
18,106.44,106.46,106.4,106.4,1300
19,106.42,106.43,106.42,106.43,700
20,106.44,106.46,106.42,106.44,547
21,106.48,106.505,106.48,106.5,1400
22,106.52,106.54,106.49,106.5,1400
23,106.5,106.52,106.48,106.52,52100
24,106.4,106.5,106.38,106.5,10863
25,106.43,106.46,106.39,106.41,2104
26,106.4,106.43,106.4,106.43,1825
27,106.41,106.45,106.39,106.4,5200
28,106.455,106.455,106.41,106.41,1850
29,106.47,106.5,106.455,106.455,2300
30,106.485,106.485,106.42,106.46,1300
31,106.46,106.48,106.42,106.48,2200
32,106.42,106.46,106.4,106.44,4300
33,106.45,106.46,106.44,106.44,500
34,106.46,106.47,106.43,106.45,1800
35,106.44,106.45,106.41,106.44,3400
36,106.41,106.43,106.38,106.43,13250
37,106.41,106.45,106.41,106.42,2200
38,106.39,106.43,106.39,106.41,4552
39,106.42,106.42,106.35,106.37,7000
40,106.44,106.46,106.42,106.43,24200
41,106.42,106.45,106.41,106.445,7556
42,106.4,106.42,106.39,106.42,2500
43,106.35,106.41,106.35,106.4,6200
44,106.23,106.335,106.21,106.335,1700
45,106.23,106.26,106.16,106.21,5501
46,106.275,106.315,106.25,106.255,2250
47,106.25,106.26,106.23,106.26,2047
48,106.26,106.26,106.235,106.24,31200
49,106.235,106.26,106.22,106.26,5200
50,106.22,106.22,106.21,106.22,1300
51,106.14,106.21,106.1,106.21,3551
52,106.14,106.16,106.13,106.16,2601
53,106.07,106.12,106.07,106.12,1100
54,105.98,106.11,105.96,106.1,3400
55,105.97,105.995,105.96,105.97,2400
56,106.04,106.04,105.995,105.995,1285
57,105.98,106.03,105.975,106.03,1500
58,106.02,106.02,105.985,106.01,1100
59,106.03,106.03,106.005,106.01,1600
61,106.075,106.09,106.03,106.05,2900
62,106.08,106.09,106.03,106.08,4804
63,106.07,106.1,106.07,106.1,500
64,106.11,106.11,106.06,106.06,700
65,106.11,106.11,106.1,106.11,800
66,106.13,106.13,106.095,106.105,2003
67,106.165,106.21,106.145,106.145,5800
68,106.16,106.1899,106.16,106.1899,1774
69,106.155,106.16,106.14,106.14,400
70,106.14,106.2,106.13,106.16,3310
71,106.21,106.21,106.13,106.13,39846
73,106.16,106.19,106.13,106.17,2600
74,106.33,106.33,106.14,106.14,2847
75,106.305,106.305,106.305,106.305,100
76,106.3,106.3,106.291,106.291,335
77,106.27,106.27,106.23,106.27,3337
78,106.28,106.28,106.28,106.28,100
79,106.35,106.35,106.3,106.3,1900
80,106.33,106.33,106.3,106.33,3901
81,106.26,106.33,106.24,106.33,1864
82,106.22,106.23,106.14,106.22,3986
83,106.22,106.22,106.19,106.19,209
85,106.195,106.235,106.195,106.235,1200
86,106.215,106.26,106.195,106.22,2300
87,106.23,106.23,106.21,106.22,300
88,106.21,106.23,106.205,106.23,1800
89,106.285,106.285,106.25,106.25,600
90,106.24,106.28,106.24,106.28,4054
91,106.255,106.27,106.24,106.26,4601
92,106.2,106.26,106.2,106.26,4128
93,106.24,106.27,106.215,106.23,3177
94,106.25,106.25,106.22,106.23,2550
95,106.22,106.26,106.22,106.25,2311
96,106.2,106.26,106.2,106.24,4650
97,106.2,106.2,106.165,106.19,4870
98,106.14,106.19,106.12,106.19,2500
99,106.045,106.08,106.0304,106.07,2991
100,106.09,106.117,106.07,106.11,1320
101,106.05,106.06,106.05,106.06,700
102,106.06,106.06,106.025,106.025,1905
103,106.07,106.09,106.07,106.09,2766
104,106.085,106.09,106.07,106.08,1900
105,106.055,106.09,106.04,106.085,29425
106,106.08,106.08,106.07,106.07,1400
107,106.09,106.11,106.08,106.095,14438
108,106.09,106.09,106.09,106.09,800
109,106.095,106.095,106.09,106.09,25600
110,106.06,106.095,106.06,106.095,3000
111,106,106.05,105.97,106.05,2450
112,105.92,105.97,105.92,105.97,500
113,105.98,105.99,105.96,105.96,1700
114,105.945,105.99,105.945,105.98,2700
115,105.94,106.01,105.94,105.96,5098
116,105.96,105.98,105.88,105.88,5200
117,105.91,105.965,105.89,105.965,1700
118,105.97,105.98,105.86,105.88,5102
119,105.93,105.97,105.9,105.96,26002
120,105.975,105.98,105.915,105.9293,2201
121,106,106,105.96,105.97,3160
122,105.98,105.985,105.98,105.98,500
123,106.01,106.01,105.98,105.985,1500
124,106,106.01,105.98,106,2500
125,105.97,105.99,105.97,105.99,700
126,105.94,105.96,105.92,105.96,2200
127,105.95,105.975,105.95,105.975,900
128,105.9694,105.9694,105.9694,105.9694,107
129,105.95,105.95,105.95,105.95,500
130,105.935,105.95,105.935,105.94,400
131,105.95,105.97,105.935,105.935,2110
132,105.96,105.96,105.95,105.95,200
133,105.93,105.93,105.93,105.93,100
134,105.91,105.94,105.91,105.94,1215
136,105.93,105.935,105.9,105.9,6070
137,105.9,105.91,105.9,105.91,500
138,105.89,105.89,105.89,105.89,400
139,105.885,105.905,105.87,105.89,4800
140,105.78,105.89,105.78,105.885,8050
141,105.79,105.795,105.78,105.795,1900
142,105.78,105.78,105.78,105.78,200
143,105.73,105.76,105.73,105.76,700
144,105.745,105.75,105.745,105.75,400
145,105.7625,105.7625,105.7625,105.7625,100
146,105.76,105.76,105.74,105.74,700
147,105.73,105.75,105.705,105.74,4675
148,105.68,105.68,105.68,105.68,100
149,105.72,105.72,105.69,105.69,3863
150,105.7,105.715,105.7,105.7,400
151,105.72,105.73,105.72,105.72,700
152,105.71,105.72,105.7,105.72,3201
153,105.74,105.7528,105.72,105.72,1944
154,105.75,105.75,105.74,105.74,300
155,105.77,105.77,105.75,105.75,2516
156,105.72,105.755,105.72,105.75,1800
157,105.76,105.76,105.715,105.715,2350
158,105.725,105.76,105.72,105.76,1500
159,105.74,105.74,105.73,105.73,1200
160,105.735,105.755,105.71,105.755,1822
161,105.69,105.71,105.69,105.71,300
162,105.69,105.69,105.69,105.69,200
163,105.695,105.72,105.69,105.69,1324
164,105.69,105.7,105.69,105.69,3550
165,105.65,105.69,105.65,105.69,1600
166,105.6,105.66,105.6,105.64,2200
167,105.585,105.59,105.585,105.59,200
168,105.565,105.565,105.555,105.565,816
170,105.58,105.58,105.53,105.56,4000
171,105.58,105.6,105.58,105.59,544
172,105.62,105.64,105.6,105.6,1200
173,105.64,105.65,105.62,105.63,700
174,105.61,105.64,105.61,105.64,1334
175,105.6,105.61,105.58,105.61,1600
176,105.6,105.65,105.6,105.6,2200
177,105.605,105.61,105.6,105.6,600
178,105.61,105.61,105.61,105.61,300
180,105.61,105.6253,105.61,105.6253,200
181,105.64,105.66,105.625,105.625,2000
182,105.65,105.65,105.64,105.65,1200
183,105.66,105.67,105.63,105.64,1800
184,105.68,105.68,105.665,105.665,800
185,105.66,105.67,105.66,105.67,1400
186,105.64,105.67,105.64,105.67,700
187,105.66,105.67,105.625,105.64,4832
189,105.63,105.6566,105.63,105.6566,2520
190,105.645,105.655,105.64,105.64,1464
191,105.64,105.65,105.63,105.64,1400
192,105.6,105.65,105.6,105.6456,2519
193,105.57,105.59,105.57,105.58,500
194,105.59,105.59,105.58,105.58,1150
195,105.59,105.59,105.58,105.58,201
196,105.6,105.6,105.6,105.6,100
197,105.61,105.64,105.6,105.61,2850
198,105.58,105.6,105.58,105.6,700
199,105.57,105.57,105.57,105.57,100
200,105.6339,105.6339,105.59,105.6,1048
201,105.61,105.63,105.61,105.63,1500
202,105.6,105.61,105.6,105.601,485
203,105.6007,105.605,105.59,105.605,3321
204,105.62,105.65,105.6,105.6,5901
205,105.62,105.62,105.6,105.62,1400
206,105.64,105.64,105.63,105.63,200
207,105.645,105.645,105.645,105.645,100
208,105.64,105.64,105.63,105.64,1289
209,105.64,105.64,105.63,105.63,200
210,105.65,105.65,105.64,105.64,1113
211,105.65,105.65,105.64,105.65,800
212,105.68,105.68,105.65,105.65,1500
213,105.65,105.67,105.65,105.67,2300
214,105.68,105.68,105.65,105.65,1300
215,105.69,105.69,105.68,105.68,200
217,105.705,105.705,105.665,105.68,3700
218,105.75,105.75,105.71,105.71,1300
220,105.745,105.79,105.72,105.79,2099
221,105.72,105.78,105.72,105.745,7002
222,105.71,105.735,105.67,105.72,8900
223,105.7015,105.7015,105.7015,105.7015,100
224,105.69,105.7,105.6852,105.7,1063
225,105.7,105.72,105.69,105.71,1900
226,105.67,105.715,105.67,105.715,1106
227,105.64,105.67,105.64,105.66,6400
228,105.58,105.65,105.58,105.64,8600
229,105.49,105.59,105.49,105.59,54455
230,105.45,105.51,105.45,105.49,13320
231,105.45,105.46,105.45,105.46,2300
232,105.49,105.49,105.445,105.445,1800
233,105.54,105.54,105.48,105.49,5997
234,105.55,105.55,105.55,105.55,1000
235,105.6,105.62,105.585,105.585,2242
236,105.57,105.6,105.57,105.6,1000
237,105.61,105.65,105.585,105.585,2400
238,105.64,105.64,105.6,105.6,1000
239,105.68,105.69,105.645,105.645,1100
240,105.73,105.73,105.675,105.675,850
241,105.73,105.73,105.725,105.725,300
242,105.72,105.77,105.72,105.74,2800
243,105.745,105.75,105.71,105.72,1100
244,105.69,105.75,105.69,105.745,2800
246,105.7,105.72,105.7,105.71,1400
247,105.65,105.675,105.65,105.675,300
248,105.68,105.69,105.63,105.65,2900
249,105.67,105.685,105.67,105.685,1323
250,105.71,105.71,105.68,105.68,5359
251,105.7,105.7,105.7,105.7,300
252,105.73,105.73,105.7,105.7,1300
253,105.68,105.71,105.68,105.71,2286
254,105.66,105.675,105.65,105.675,600
255,105.655,105.66,105.655,105.66,1200
260,105.69,105.69,105.675,105.68,3300
261,105.7,105.71,105.69,105.71,2000
263,105.7,105.715,105.7,105.715,1185
264,105.7,105.7,105.7,105.7,300
265,105.6969,105.73,105.6969,105.71,3225
266,105.69,105.69,105.69,105.69,100
267,105.68,105.69,105.68,105.69,800
268,105.69,105.7,105.69,105.69,1400
269,105.69,105.72,105.69,105.72,200
270,105.68,105.7,105.66,105.69,3967
271,105.7,105.7,105.68,105.69,1100
272,105.6763,105.71,105.64,105.71,5420
273,105.68,105.68,105.675,105.675,400
274,105.67,105.68,105.67,105.68,600
275,105.66,105.66,105.66,105.66,200
276,105.69,105.69,105.67,105.67,1300
277,105.67,105.69,105.67,105.69,2436
278,105.685,105.685,105.665,105.68,600
279,105.705,105.705,105.68,105.69,300
280,105.68,105.71,105.68,105.69,2100
281,105.6967,105.7033,105.67,105.68,2425
282,105.69,105.695,105.68,105.695,1710
284,105.67,105.695,105.67,105.69,3500
285,105.69,105.69,105.675,105.68,1764
286,105.7,105.7,105.685,105.685,2000
287,105.7,105.7,105.69,105.69,500
288,105.72,105.72,105.72,105.72,300
289,105.71,105.71,105.71,105.71,100
290,105.69,105.72,105.69,105.72,2300
291,105.71,105.71,105.69,105.69,600
292,105.74,105.75,105.715,105.74,1700
293,105.73,105.73,105.73,105.73,100
294,105.75,105.76,105.745,105.76,500
296,105.76,105.775,105.76,105.775,200
297,105.78,105.795,105.78,105.78,300
298,105.78,105.79,105.78,105.79,1500
299,105.78,105.81,105.78,105.81,2274
300,105.79,105.81,105.78,105.78,1700
301,105.83,105.83,105.83,105.83,300
302,105.825,105.83,105.81,105.82,900
303,105.82,105.86,105.82,105.835,3200
306,105.8443,105.85,105.8443,105.85,250
307,105.87,105.89,105.855,105.86,3529
308,105.88,105.88,105.88,105.88,600
309,105.88,105.89,105.88,105.89,1400
310,105.87,105.87,105.87,105.87,1020
311,105.87,105.88,105.87,105.88,1750
312,105.87,105.885,105.87,105.885,700
313,105.875,105.875,105.87,105.87,350
314,105.875,105.88,105.86,105.86,1100
315,105.85,105.87,105.85,105.87,2279
316,105.9,105.9,105.86,105.86,2700
317,105.9,105.94,105.88,105.9,4127
318,105.9,105.93,105.9,105.93,1300
319,105.925,105.925,105.925,105.925,100
320,105.94,105.94,105.93,105.93,1000
321,105.97,105.97,105.9,105.93,5450
322,105.9472,105.9472,105.9472,105.9472,480
323,105.95,105.95,105.94,105.94,1200
324,105.97,105.97,105.96,105.96,1099
325,105.96,105.97,105.96,105.97,1000
326,105.98,105.98,105.95,105.97,4100
327,105.99,105.99,105.98,105.98,1603
328,105.9737,106.02,105.95,105.99,9715
329,105.99,105.99,105.971,105.98,1300
330,105.985,106,105.985,105.985,500
331,106.01,106.01,105.97,105.97,25147
332,106,106.015,106,106.01,2423
333,106.01,106.02,106,106,1900
335,106.0168,106.0168,106,106,729
336,105.98,106,105.975,106,3305
337,105.99,105.99,105.98,105.98,600
338,106.02,106.03,105.985,105.985,1600
339,106.06,106.06,106,106.05,23783
340,106.05,106.05,106.03,106.05,500
341,106.06,106.06,106.05,106.05,1810
342,106.04,106.06,106.04,106.06,22400
343,106.06,106.07,106.04,106.05,3200
344,106.06,106.07,106.05,106.07,1800
345,106.085,106.09,106.05,106.05,1000
346,106.06,106.1,106.06,106.08,2914
347,106.09,106.09,106.06,106.08,1400
348,106.09,106.09,106.08,106.08,300
349,106.09,106.1,106.08,106.09,1800
350,106.09,106.0918,106.08,106.09,2742
351,106.08,106.085,106.07,106.08,1500
352,106.07,106.07,106.05,106.07,12361
353,106.07,106.08,106.06,106.07,2700
354,106.06,106.0682,106.06,106.06,343
355,106.06,106.07,106.06,106.06,1100
356,106.04,106.06,106.04,106.06,2500
357,105.945,106.05,105.94,106.04,7431
358,105.99,106.005,105.94,105.945,2773
359,106,106,105.89,105.99,7468
360,106.05,106.05,106.01,106.02,1000
361,106.07,106.07,106.06,106.07,1300
362,106.075,106.075,106.075,106.075,200
363,106.105,106.105,106.07,106.07,1200
364,106.145,106.15,106.11,106.11,4013
365,106.11,106.14,106.11,106.14,2501
366,106.14,106.14,106.11,106.11,3881
367,106.16,106.16,106.135,106.135,1100
368,106.17,106.17,106.15,106.17,2785
369,106.155,106.17,106.14,106.17,2207
370,106.125,106.1647,106.12,106.16,8005
371,106.11,106.12,106.07,106.12,3800
372,106.13,106.13,106.1,106.1,2200
373,106.125,106.14,106.11,106.14,4059
374,106.14,106.16,106.13,106.13,3608
375,106.19,106.19,106.14,106.14,6569
376,106.2,106.22,106.17,106.17,5507
377,106.15,106.23,106.13,106.205,4480
378,106.1501,106.155,106.145,106.145,1753
379,106.14,106.155,106.1214,106.155,4950
380,106.16,106.16,106.14,106.14,5294
381,106.185,106.185,106.17,106.17,3404
382,106.16,106.19,106.16,106.185,4642
383,106.085,106.16,106.08,106.14,5489
384,106.13,106.13,106.085,106.085,3200
385,106.13,106.13,106.115,106.12,5117
386,106.16,106.17,106.12,106.12,4274
387,106.15,106.17,106.14,106.16,5443
388,106.135,106.14,106.12,106.14,2870
389,106.15,106.15,106.13,106.135,8086
390,106.05,106.15,105.99,106.14,46503
