EOG,EOG Resources,Energy,3,Oil & Gas Exploration & Production,53085638965,3392550
a1500298200,91.31,91.31,91.31,91.31,22001
1,91.49,91.63,91.35,91.35,5215
2,91.545,91.58,91.5,91.56,4632
3,91.42,91.57,91.31,91.52,11050
4,91.57,91.61,91.37,91.44,5800
5,91.61,91.65,91.535,91.59,5604
6,91.64,91.7,91.6,91.69,6005
7,91.815,91.87,91.67,91.69,6110
8,91.75,91.81,91.71,91.78,4312
9,91.755,91.78,91.7352,91.745,1454
10,91.81,91.83,91.75,91.78,4562
11,91.92,91.92,91.79,91.88,4228
12,91.8416,91.91,91.8,91.89,2950
13,91.8,91.89,91.8,91.86,2800
14,91.8,91.8,91.69,91.793,3482
15,91.68,91.83,91.68,91.77,1163
16,91.76,91.79,91.64,91.64,3758
17,91.7,91.79,91.69,91.76,7112
18,91.82,91.82,91.67,91.67,4694
19,91.72,91.82,91.72,91.815,9658
20,91.705,91.77,91.705,91.72,11372
21,91.73,91.78,91.69,91.69,6846
22,91.76,91.76,91.7,91.73,7016
23,91.73,91.75,91.71,91.74,3926
24,91.73,91.79,91.69,91.75,5393
25,91.64,91.78,91.61,91.75,6069
26,91.67,91.72,91.66,91.66,2900
27,91.67,91.71,91.645,91.66,4085
28,91.71,91.71,91.67,91.69,5154
29,91.72,91.73,91.65,91.7,7700
30,91.755,91.77,91.67,91.7225,4538
31,91.67,91.76,91.62,91.75,11328
32,91.74,91.75,91.65,91.67,4578
33,91.85,91.86,91.71,91.725,7567
34,91.765,91.86,91.715,91.835,7837
35,91.82,91.85,91.765,91.77,11427
36,91.74,91.82,91.72,91.8,5708
37,91.78,91.8,91.75,91.75,2198
38,91.8,91.85,91.765,91.77,4000
39,91.92,91.92,91.81,91.81,4100
40,91.95,91.98,91.91,91.96,4004
41,92,92.04,91.97,91.98,5110
42,91.98,92.01,91.96,91.99,3350
43,91.95,92,91.92,91.98,3527
44,91.93,91.96,91.93,91.96,3183
45,91.88,91.92,91.865,91.92,3108
46,91.83,91.88,91.83,91.88,3100
47,91.84,91.94,91.84,91.85,4587
48,91.81,91.86,91.81,91.84,2200
49,91.82,91.83,91.78,91.83,300
50,91.73,91.8,91.72,91.79,5544
51,91.73,91.78,91.71,91.75,3808
52,91.67,91.72,91.66,91.72,2554
53,91.65,91.68,91.62,91.67,3299
54,91.66,91.69,91.64,91.64,2153
55,91.71,91.75,91.69,91.69,2293
56,91.7,91.71,91.68,91.69,2575
57,91.71,91.71,91.69,91.69,1605
58,91.75,91.75,91.71,91.739,5507
59,91.76,91.84,91.74,91.75,5654
60,91.75,91.77,91.74,91.77,1390
61,91.73,91.76,91.7147,91.7486,5167
62,91.755,91.8,91.75,91.751,2752
63,91.81,91.81,91.75,91.75,2270
64,91.86,91.86,91.795,91.795,11171
65,91.91,91.95,91.84,91.88,8458
66,91.88,91.9,91.86,91.9,2575
67,91.86,91.895,91.82,91.875,5822
68,91.87,91.88,91.84,91.85,2886
69,91.885,91.9,91.835,91.86,6050
70,91.865,91.89,91.86,91.88,5832
71,91.89,91.9,91.85,91.87,4153
72,91.86,91.88,91.85,91.88,1234
73,91.8,91.86,91.8,91.86,4100
74,91.81,91.84,91.78,91.8,10199
75,91.84,91.86,91.79,91.81,7576
76,91.79,91.8751,91.79,91.84,3018
77,91.89,91.9,91.81,91.81,2950
78,91.88,91.91,91.88,91.89,3205
79,91.95,91.95,91.86,91.8801,4449
80,91.91,91.95,91.89,91.95,3129
81,91.93,91.93,91.92,91.92,1544
82,91.88,91.93,91.86,91.93,2463
83,91.84,91.89,91.83,91.88,3200
84,91.85,91.86,91.84,91.85,3115
85,91.935,91.935,91.86,91.86,2600
86,91.94,91.97,91.94,91.94,4433
87,91.93,91.9451,91.92,91.93,4091
88,91.87,91.92,91.84,91.92,6160
89,91.805,91.88,91.805,91.86,3919
90,91.84,91.87,91.81,91.82,6472
91,91.805,91.87,91.7901,91.86,2800
92,91.8,91.819,91.77,91.79,2745
93,91.83,91.84,91.7888,91.8,4400
94,91.85,91.86,91.81,91.82,4600
95,91.87,91.88,91.83,91.88,3900
96,91.83,91.86,91.8298,91.83,2600
97,91.88,91.88,91.82,91.82,6334
98,91.82,91.865,91.82,91.865,3800
99,91.89,91.89,91.84,91.84,6212
100,91.85,91.89,91.84,91.89,6001
101,91.89,91.9099,91.84,91.84,3524
102,91.88,91.91,91.85,91.9,6150
103,91.89,91.9,91.84,91.8715,3695
104,91.88,91.92,91.87,91.92,2600
105,91.9,91.91,91.87,91.87,2966
106,91.895,91.9,91.88,91.9,6779
107,91.81,91.9,91.81,91.89,6310
108,91.86,91.86,91.82,91.825,7400
109,91.83,91.87,91.83,91.86,1800
110,91.85,91.86,91.77,91.83,3380
111,91.88,91.89,91.85,91.8699,3549
112,91.89,91.91,91.89,91.9,2100
113,91.89,91.9,91.87,91.88,5627
114,91.93,91.94,91.9,91.9,49498
115,91.99,92,91.94,91.94,5197
116,92.05,92.07,91.99,91.99,8627
117,92.09,92.09,92.05,92.07,6098
118,92.07,92.12,92.05,92.09,14608
119,92.1014,92.13,92.07,92.07,14085
120,92.04,92.1,92.03,92.1,12718
121,91.97,92.04,91.97,92.03,9875
122,91.97,92,91.97,91.98,63429
123,92.01,92.02,91.965,91.965,16445
124,92.02,92.03,92,92,9363
125,91.96,92.01,91.96,92.01,7443
126,91.87,91.96,91.86,91.96,5467
127,91.85,91.93,91.85,91.9,3925
128,91.91,91.91,91.87,91.87,2898
129,91.94,91.95,91.88,91.89,3246
130,91.89,91.98,91.89,91.95,5032
131,91.78,91.89,91.78,91.89,4207
132,91.86,91.86,91.79,91.79,2919
133,91.78,91.87,91.76,91.86,10084
134,91.84,91.84,91.795,91.795,2440
135,91.87,91.91,91.815,91.82,35359
136,91.86,91.91,91.85,91.88,8255
137,91.86,91.87,91.86,91.87,1285
138,91.84,91.85,91.81,91.85,3230
139,91.81,91.84,91.79,91.84,4985
140,91.73,91.79,91.73,91.79,4200
141,91.67,91.74,91.67,91.74,3750
142,91.71,91.71,91.63,91.68,8200
143,91.74,91.74,91.695,91.7,9141
144,91.68,91.72,91.64,91.72,8756
145,91.66,91.695,91.66,91.695,2221
146,91.66,91.67,91.58,91.64,6200
147,91.72,91.72,91.65,91.67,23430
148,91.82,91.84,91.715,91.73,10270
149,91.83,91.85,91.82,91.82,2140
150,91.855,91.87,91.845,91.845,4051
151,91.89,91.89,91.8,91.85,8164
152,91.84,91.905,91.84,91.905,2900
153,91.85,91.875,91.795,91.84,7421
154,91.82,91.85,91.8,91.85,4555
155,91.86,91.895,91.82,91.83,14673
156,91.84,91.87,91.825,91.85,5992
157,91.8475,91.85,91.81,91.83,4343
158,91.82,91.86,91.82,91.86,2476
159,91.86,91.86,91.8,91.81,6103
160,91.88,91.9,91.84,91.84,3680
161,91.88,91.9,91.87,91.87,2400
162,91.9,91.91,91.875,91.88,5800
163,91.91,91.92,91.89,91.92,3300
164,91.87,91.92,91.87,91.9,4280
165,91.81,91.87,91.8,91.87,3700
166,91.81,91.83,91.81,91.82,3343
167,91.8,91.82,91.78,91.82,4410
168,91.7692,91.82,91.76,91.81,3861
169,91.77,91.79,91.75,91.75,5165
170,91.78,91.8,91.76,91.76,4311
171,91.81,91.81,91.73,91.77,6900
172,91.76,91.7801,91.75,91.78,3500
173,91.79,91.81,91.75,91.76,3400
174,91.76,91.79,91.745,91.79,3814
175,91.75,91.8,91.745,91.785,2600
176,91.8,91.8,91.75,91.76,4800
177,91.73,91.8,91.71,91.77,4029
178,91.7,91.73,91.69,91.73,4558
179,91.7415,91.75,91.69,91.69,6500
180,91.78,91.78,91.74,91.74,4242
181,91.785,91.79,91.76,91.77,5825
182,91.8,91.81,91.78,91.78,2800
183,91.76,91.79,91.74,91.79,6183
184,91.75,91.77,91.75,91.76,3039
185,91.8,91.805,91.74,91.74,15448
186,91.76,91.79,91.76,91.79,3165
187,91.745,91.77,91.745,91.755,3878
188,91.72,91.8,91.72,91.75,5900
189,91.73,91.73,91.7,91.71,5250
190,91.705,91.72,91.705,91.72,1550
191,91.73,91.73,91.695,91.705,5102
192,91.72,91.76,91.69,91.74,5800
193,91.705,91.76,91.67,91.74,10745
194,91.7,91.75,91.7,91.705,3883
195,91.725,91.725,91.67,91.69,2867
196,91.735,91.75,91.68,91.71,3687
197,91.78,91.8,91.75,91.76,2229
198,91.77,91.8,91.77,91.8,3100
199,91.78,91.78,91.76,91.77,800
200,91.76,91.77,91.76,91.76,1300
201,91.77,91.77,91.75,91.76,1314
202,91.76,91.77,91.76,91.77,1300
203,91.79,91.79,91.78,91.78,1000
204,91.845,91.845,91.8,91.81,1100
205,91.85,91.86,91.84,91.86,1300
206,91.86,91.86,91.83,91.83,1200
207,91.85,91.86,91.835,91.85,14500
208,91.88,91.91,91.85,91.85,5288
209,91.86,91.875,91.85,91.875,6347
210,91.86,91.86,91.82,91.85,21015
211,91.85,91.86,91.85,91.85,2600
212,91.83,91.86,91.82,91.86,11080
213,91.83,91.88,91.83,91.84,4700
214,91.88,91.88,91.83,91.84,1700
215,91.86,91.9,91.86,91.87,3065
216,91.86,91.88,91.84,91.88,1790
217,91.863,91.89,91.86,91.882,1300
218,91.85,91.89,91.82,91.89,3335
219,91.85,91.8588,91.84,91.8588,1268
220,91.81,91.87,91.81,91.86,1936
221,91.81,91.81,91.78,91.8,700
222,91.74,91.825,91.74,91.82,3570
223,91.73,91.75,91.7,91.74,2475
224,91.745,91.75,91.72,91.72,1841
225,91.72,91.75,91.715,91.74,4223
226,91.68,91.71,91.6626,91.7,6150
227,91.73,91.75,91.65,91.66,10440
228,91.75,91.77,91.748,91.75,3680
229,91.75,91.77,91.75,91.75,1200
230,91.75,91.78,91.735,91.76,2800
231,91.75,91.77,91.72,91.745,3100
232,91.75,91.77,91.72,91.76,4300
233,91.75,91.79,91.73,91.75,5229
234,91.77,91.78,91.725,91.75,5157
235,91.76,91.81,91.76,91.77,3500
236,91.705,91.77,91.705,91.76,2200
237,91.655,91.71,91.65,91.71,1700
238,91.65,91.69,91.65,91.67,3600
239,91.61,91.641,91.61,91.641,4300
240,91.58,91.58,91.58,91.58,500
241,91.6,91.62,91.57,91.57,2681
242,91.6118,91.62,91.6,91.6,576
243,91.645,91.645,91.63,91.63,912
244,91.62,91.63,91.61,91.63,2300
245,91.63,91.65,91.63,91.64,2100
246,91.66,91.66,91.62,91.63,4100
247,91.6521,91.67,91.62,91.66,11601
248,91.67,91.68,91.6578,91.66,2050
249,91.665,91.68,91.6576,91.68,1800
250,91.69,91.69,91.66,91.665,2321
251,91.67,91.7,91.67,91.68,2161
252,91.67,91.68,91.64,91.67,3024
253,91.69,91.69,91.66,91.66,2400
254,91.71,91.71,91.7,91.7,755
255,91.66,91.7,91.66,91.7,1800
256,91.7,91.7,91.66,91.66,1109
257,91.72,91.7415,91.691,91.71,4595
258,91.74,91.77,91.72,91.72,1500
259,91.79,91.79,91.735,91.735,2000
260,91.76,91.77,91.76,91.77,1192
261,91.77,91.78,91.76,91.77,1500
262,91.762,91.78,91.7525,91.77,2200
263,91.78,91.78,91.71,91.75,4138
264,91.81,91.81,91.775,91.78,1200
265,91.79,91.81,91.79,91.7988,677
266,91.84,91.84,91.79,91.8,2444
267,91.88,91.88,91.87,91.87,1800
268,91.84,91.88,91.83,91.88,3607
269,91.86,91.87,91.84,91.84,2700
270,91.86,91.87,91.84,91.8501,5970
271,91.84,91.85,91.84,91.85,1850
272,91.87,91.89,91.84,91.84,4791
273,91.89,91.89,91.86,91.86,345
274,91.89,91.9,91.88,91.9,2800
275,91.89,91.9,91.88,91.89,2200
276,91.88,91.88,91.86,91.88,3034
277,91.84,91.87,91.84,91.87,2597
278,91.85,91.86,91.84,91.84,3300
279,91.84,91.88,91.84,91.87,2413
280,91.91,91.91,91.84,91.84,2200
281,91.9,91.92,91.86,91.895,4286
282,91.9,91.91,91.89,91.89,990
283,91.91,91.91,91.9,91.91,1700
284,91.87,91.9,91.87,91.9,2639
285,91.88,91.88,91.84,91.86,2300
286,91.91,91.91,91.88,91.88,1100
287,91.92,91.95,91.91,91.91,1100
288,91.92,91.92,91.9,91.91,1200
289,91.91,91.91,91.9,91.91,1000
290,91.91,91.91,91.89,91.91,3358
291,91.95,91.95,91.92,91.93,1628
292,91.93,91.94,91.915,91.94,2100
293,91.91,91.94,91.91,91.93,1556
294,91.93,91.94,91.92,91.92,1890
295,91.92,91.94,91.92,91.9369,1650
296,91.93,91.95,91.89,91.925,4475
297,91.95,91.95,91.94,91.95,1301
298,91.945,91.98,91.94,91.97,2014
299,91.93,91.94,91.93,91.94,1958
300,91.93,91.945,91.93,91.93,1650
301,91.91,91.93,91.91,91.93,1689
302,91.93,91.93,91.92,91.92,600
303,91.9,91.92,91.89,91.92,2800
304,91.8788,91.89,91.8788,91.88,2463
305,91.86,91.89,91.86,91.88,2611
306,91.87,91.87,91.8481,91.87,2806
307,91.85,91.865,91.85,91.865,1800
308,91.875,91.9,91.84,91.86,2663
309,91.89,91.9,91.87,91.88,4401
310,91.84,91.88,91.83,91.88,5189
311,91.84,91.86,91.84,91.85,2500
312,91.81,91.85,91.81,91.8397,3128
313,91.84,91.85,91.82,91.82,28709
314,91.82,91.85,91.81,91.83,4000
315,91.8,91.81,91.781,91.8,3960
316,91.83,91.87,91.81,91.81,10045
317,91.83,91.85,91.82,91.849,3105
318,91.8495,91.85,91.83,91.83,2300
319,91.86,91.88,91.845,91.845,2800
320,91.89,91.91,91.86,91.86,6013
321,91.9,91.92,91.89,91.9099,1900
322,91.88,91.92,91.88,91.91,4023
323,91.9,91.9,91.87,91.87,2412
324,91.88,91.91,91.88,91.9,1400
325,91.93,91.93,91.87,91.89,5064
326,91.91,91.94,91.9,91.93,1869
327,91.905,91.91,91.89,91.91,1400
328,91.88,91.91,91.88,91.9,1100
329,91.94,91.94,91.87,91.87,3336
330,91.92,91.94,91.9,91.94,3123
331,91.9,91.9499,91.9,91.93,3244
332,91.875,91.8925,91.875,91.8925,1353
333,91.85,91.88,91.85,91.875,3600
334,91.8597,91.86,91.83,91.84,2500
335,91.82,91.845,91.82,91.845,2400
336,91.81,91.82,91.785,91.81,4504
337,91.75,91.82,91.75,91.82,3895
338,91.75,91.76,91.75,91.75,1101
339,91.745,91.76,91.745,91.75,1000
340,91.79,91.79,91.745,91.745,2941
341,91.83,91.83,91.79,91.79,1965
342,91.82,91.82,91.8,91.82,2545
343,91.79,91.82,91.79,91.81,5265
344,91.76,91.79,91.76,91.79,2512
345,91.77,91.78,91.74,91.7584,2565
346,91.81,91.81,91.78,91.78,1706
347,91.88,91.89,91.81,91.81,2300
348,91.85,91.89,91.85,91.89,3875
349,91.86,91.87,91.842,91.842,3588
350,91.9,91.9,91.86,91.86,2423
351,91.9,91.9,91.89,91.8995,1680
352,91.845,91.91,91.845,91.9,5027
353,91.85,91.85,91.82,91.845,2830
354,91.82,91.86,91.82,91.855,2549
355,91.79,91.83,91.79,91.82,4868
356,91.81,91.82,91.79,91.79,2804
357,91.78,91.81,91.78,91.8,4076
358,91.77,91.78,91.76,91.77,2058
359,91.76,91.76,91.76,91.76,600
360,91.77,91.78,91.76,91.77,5786
361,91.81,91.82,91.78,91.78,5895
362,91.865,91.865,91.81,91.81,3790
363,91.9,91.9,91.87,91.87,3920
364,91.8643,91.9,91.8643,91.9,3308
365,91.86,91.875,91.85,91.86,5754
366,91.91,91.91,91.855,91.86,4050
367,91.87,91.905,91.87,91.9,7209
368,91.87,91.9,91.87,91.87,3676
369,91.87,91.88,91.865,91.88,6684
370,91.9,91.9,91.86,91.87,15653
371,91.86,91.9,91.86,91.89,5647
372,91.87,91.88,91.85,91.86,3730
373,91.85,91.875,91.85,91.875,9264
374,91.87,91.87,91.85,91.855,6994
375,91.87,91.88,91.86,91.87,13315
376,91.89,91.895,91.87,91.88,18855
377,91.87,91.9,91.86,91.89,13448
378,91.87,91.89,91.86,91.87,7401
379,91.91,91.92,91.87,91.875,7281
380,91.9,91.92,91.8896,91.91,17960
381,91.93,91.93,91.9,91.9,6506
382,91.96,91.96,91.925,91.925,8844
383,91.955,91.97,91.94,91.955,14274
384,91.95,91.96,91.935,91.96,11714
385,91.96,91.97,91.94,91.945,14285
386,91.88,91.97,91.88,91.9575,24093
387,91.86,91.92,91.85,91.89,29260
388,91.84,91.865,91.81,91.865,37195
389,91.83,91.86,91.82,91.83,39692
390,91.85,91.9,91.82,91.83,69050
