PPG,PPG Industries,Materials,8,Specialty Chemicals,29042990609,1162956
a1500298200,112.8,112.8,112.8,112.8,6970
1,112.71,112.71,112.7,112.7,200
2,112.8,112.9,112.72,112.72,2326
3,112.67,112.81,112.5176,112.81,3200
4,112.67,112.67,112.65,112.66,800
5,112.6672,112.67,112.65,112.665,800
6,112.6,112.6385,112.6,112.6385,300
7,112.98,112.98,112.81,112.81,600
8,112.9082,112.91,112.9082,112.91,219
9,112.925,112.99,112.84,112.98,2876
10,112.91,112.98,112.91,112.93,600
11,112.9334,112.9334,112.89,112.93,625
12,112.81,112.82,112.77,112.82,400
13,112.82,112.82,112.79,112.79,800
14,112.83,112.83,112.83,112.83,100
15,112.83,112.83,112.79,112.83,500
16,112.85,112.89,112.83,112.865,1100
17,112.87,112.87,112.8417,112.8417,577
18,112.92,112.92,112.9,112.9,400
20,112.92,112.975,112.92,112.95,2500
21,112.88,112.93,112.88,112.91,400
22,113.055,113.055,112.95,112.95,2300
23,113.07,113.11,113.06,113.095,800
24,113.11,113.115,113.09,113.09,1300
25,113.07,113.1,113.07,113.1,700
26,113.0661,113.0661,113.0661,113.0661,120
27,113.07,113.085,113.06,113.06,1700
28,113.05,113.07,113,113.07,2600
29,113,113.01,113,113,600
30,113.06,113.07,112.97,113.01,2794
31,113.04,113.07,113.04,113.06,800
32,113.04,113.09,113.04,113.08,988
33,113.02,113.04,113.01,113.04,900
34,113.06,113.06,113.01,113.035,3400
35,113.05,113.05,113.05,113.05,100
36,113.07,113.07,113.0502,113.0502,325
37,113.08,113.09,113.08,113.09,372
38,113.04,113.09,113.04,113.09,1301
39,113.02,113.02,113,113.02,705
40,113.015,113.015,113.015,113.015,100
41,113.06,113.06,113.05,113.05,200
42,113.13,113.13,113.08,113.08,1154
43,113.09,113.15,113.09,113.15,1113
44,113.08,113.12,113.08,113.12,400
45,113.13,113.13,113.04,113.11,6629
46,113.11,113.12,113.06,113.1,1200
47,113.1,113.13,113.1,113.12,300
48,113.12,113.14,113.12,113.12,1300
49,113.11,113.11,113.11,113.11,200
50,113.13,113.13,113.12,113.12,700
51,113.15,113.15,113.12,113.12,280
52,113.17,113.17,113.15,113.17,406
53,113.12,113.17,113.12,113.17,916
54,113.14,113.14,113.12,113.12,215
56,113.14,113.14,113.14,113.14,100
57,113.21,113.21,113.17,113.17,2100
58,113.2,113.23,113.2,113.22,1000
59,113.19,113.2,113.19,113.2,600
60,113.24,113.24,113.19,113.19,1300
61,113.22,113.22,113.22,113.22,100
62,113.23,113.26,113.23,113.2386,491
63,113.28,113.28,113.23,113.2453,1100
64,113.295,113.3,113.29,113.3,700
65,113.34,113.34,113.3,113.3,3890
66,113.33,113.34,113.31,113.31,1000
67,113.3,113.31,113.3,113.31,395
68,113.33,113.33,113.31,113.32,900
69,113.3,113.32,113.3,113.31,2561
70,113.29,113.29,113.29,113.29,800
71,113.22,113.26,113.22,113.25,1800
72,113.19,113.21,113.18,113.21,1000
73,113.22,113.22,113.2,113.2,900
74,113.24,113.25,113.23,113.23,2500
75,113.3,113.3,113.25,113.25,1100
76,113.3,113.3212,113.3,113.31,1400
77,113.32,113.32,113.27,113.27,600
78,113.34,113.34,113.33,113.33,300
79,113.37,113.3783,113.35,113.3589,900
80,113.3304,113.3304,113.3304,113.3304,340
81,113.36,113.36,113.32,113.35,300
82,113.36,113.36,113.32,113.32,200
83,113.3,113.3,113.3,113.3,100
84,113.34,113.37,113.32,113.32,1600
85,113.3,113.305,113.3,113.305,200
86,113.31,113.31,113.2882,113.2882,1820
87,113.33,113.33,113.33,113.33,100
88,113.29,113.32,113.29,113.32,300
89,113.32,113.32,113.305,113.32,400
90,113.35,113.35,113.325,113.325,200
91,113.35,113.35,113.35,113.35,100
92,113.33,113.33,113.33,113.33,100
93,113.4,113.41,113.36,113.4,1200
94,113.44,113.45,113.42,113.42,500
95,113.43,113.46,113.43,113.44,1000
96,113.4,113.43,113.4,113.43,518
97,113.38,113.38,113.38,113.38,100
98,113.36,113.3976,113.36,113.3736,2202
100,113.41,113.43,113.405,113.405,1000
101,113.41,113.45,113.41,113.43,3222
102,113.39,113.42,113.39,113.41,500
103,113.3825,113.3825,113.3825,113.3825,100
104,113.24,113.36,113.24,113.36,4387
105,113.255,113.255,113.24,113.24,1000
106,113.24,113.255,113.21,113.24,2000
108,113.2778,113.28,113.24,113.24,1300
109,113.31,113.31,113.29,113.29,200
110,113.32,113.32,113.28,113.32,1200
111,113.33,113.33,113.32,113.32,300
112,113.325,113.36,113.32,113.32,1300
114,113.31,113.33,113.31,113.33,300
116,113.31,113.31,113.3,113.31,1100
117,113.33,113.33,113.33,113.33,100
118,113.33,113.35,113.32,113.33,1800
119,113.39,113.39,113.35,113.35,1181
120,113.34,113.37,113.34,113.37,2000
121,113.35,113.35,113.35,113.35,200
122,113.32,113.34,113.32,113.34,600
123,113.3,113.33,113.3,113.31,1400
124,113.27,113.28,113.25,113.28,1800
125,113.2868,113.29,113.26,113.26,782
126,113.24,113.27,113.24,113.27,500
127,113.15,113.18,113.15,113.175,300
128,113.16,113.16,113.15,113.15,400
129,113.175,113.18,113.14,113.14,2395
130,113.14,113.14,113.14,113.14,100
131,113.13,113.1498,113.11,113.1498,545
132,113.09,113.09,113.09,113.09,100
133,113.098,113.098,113.098,113.098,105
134,113.12,113.12,113.11,113.11,1001
135,113.11,113.13,113.1,113.13,1439
136,113.08,113.09,113.08,113.09,800
137,113.12,113.12,113.09,113.09,700
138,113.14,113.14,113.14,113.14,300
139,113.14,113.14,113.14,113.14,100
140,113.16,113.16,113.13,113.13,342
141,113.15,113.17,113.15,113.17,1053
142,113.15,113.15,113.14,113.1425,400
143,113.155,113.16,113.155,113.16,1114
145,113.17,113.17,113.17,113.17,100
147,113.18,113.18,113.18,113.18,100
148,113.16,113.18,113.16,113.18,200
149,113.15,113.15,113.15,113.15,100
150,113.177,113.18,113.1673,113.18,1539
152,113.18,113.18,113.18,113.18,100
153,113.2,113.22,113.18,113.18,1200
154,113.18,113.19,113.18,113.19,1400
155,113.19,113.19,113.19,113.19,200
156,113.19,113.19,113.17,113.1801,858
157,113.19,113.19,113.19,113.19,200
158,113.15,113.18,113.15,113.17,600
159,113.13,113.13,113.13,113.13,100
160,113.1247,113.18,113.1247,113.18,201
161,113.16,113.16,113.14,113.14,200
162,113.16,113.16,113.16,113.16,400
164,113.16,113.18,113.16,113.16,411
165,113.149,113.149,113.13,113.13,300
167,113.135,113.15,113.135,113.14,600
169,113.14,113.14,113.14,113.14,275
170,113.15,113.15,113.15,113.15,100
171,113.13,113.14,113.12,113.14,1616
172,113.13,113.13,113.11,113.11,400
173,113.14,113.14,113.13,113.13,200
174,113.17,113.17,113.15,113.15,635
175,113.17,113.18,113.17,113.17,1242
177,113.17,113.175,113.17,113.175,400
178,113.18,113.18,113.18,113.18,400
179,113.17,113.18,113.16,113.175,900
180,113.2,113.2,113.19,113.19,351
181,113.203,113.203,113.19,113.1901,388
182,113.19,113.205,113.19,113.19,601
184,113.19,113.19,113.19,113.19,739
185,113.17,113.2,113.17,113.2,2000
186,113.13,113.162,113.13,113.162,633
187,113.12,113.15,113.12,113.15,1800
189,113.11,113.11,113.11,113.11,100
190,113.09,113.1,113.09,113.1,200
192,113.08,113.08,113.08,113.08,200
193,113.0825,113.1,113.08,113.1,400
194,113.1,113.1,113.085,113.0857,1375
195,113.1,113.12,113.09,113.12,900
196,113.09,113.09,113.08,113.08,500
197,113.11,113.11,113.11,113.11,424
198,113.1,113.1,113.1,113.1,193
199,113.11,113.12,113.1,113.12,953
200,113.07,113.1,113.07,113.1,1052
201,113.11,113.11,113.11,113.11,700
202,113.145,113.145,113.12,113.12,3800
204,113.13,113.13,113.13,113.13,100
205,113.12,113.13,113.12,113.13,200
206,113.13,113.14,113.13,113.14,500
207,113.16,113.16,113.12,113.13,2000
208,113.135,113.135,113.12,113.12,200
209,113.13,113.13,113.124,113.124,200
210,113.13,113.13,113.13,113.13,300
211,113.12,113.15,113.12,113.15,300
213,113.135,113.14,113.13,113.14,500
214,113.11,113.13,113.11,113.13,978
216,113.11,113.11,113.1,113.1,900
217,113.11,113.11,113.11,113.11,200
219,113.085,113.085,113.07,113.07,200
220,113.11,113.11,113.085,113.085,796
221,113.0844,113.0844,113.0844,113.0844,497
222,113.085,113.085,113.07,113.07,200
223,113.095,113.12,113.095,113.1,1878
224,113.08,113.08,113.08,113.08,200
225,113.12,113.12,113.09,113.09,900
226,113.11,113.13,113.1,113.13,1638
227,113.11,113.13,113.09,113.09,1100
228,113.09,113.107,113.081,113.107,769
230,113.08,113.1,113.08,113.1,500
231,113.055,113.07,113.04,113.07,800
233,113.05,113.05,113.04,113.05,300
234,113.0301,113.0301,113.03,113.03,200
235,113.05,113.06,113.043,113.043,1300
236,113.07,113.07,113.05,113.05,1200
237,113.03,113.04,113.03,113.04,413
239,113.05,113.05,113.02,113.02,900
240,113.02,113.03,113.02,113.03,300
241,113.035,113.035,113.01,113.01,600
242,113.0201,113.0273,113.0201,113.0273,300
243,113.04,113.05,113.03,113.04,3650
244,113.03,113.04,113.02,113.04,1566
246,113.025,113.025,113.025,113.025,100
248,113.04,113.05,113.02,113.02,600
249,113.04,113.04,113.04,113.04,100
250,113.05,113.05,113.03,113.03,300
251,113.08,113.08,113.07,113.07,600
252,113.08,113.08,113.06,113.07,600
254,113.09,113.09,113.08,113.08,478
255,113.12,113.12,113.11,113.11,200
256,113.11,113.13,113.11,113.12,823
257,113.1184,113.1184,113.11,113.11,296
259,113.155,113.155,113.11,113.11,2500
260,113.19,113.19,113.15,113.1579,1643
261,113.2,113.2,113.17,113.17,400
262,113.18,113.21,113.18,113.19,922
263,113.14,113.14,113.12,113.12,300
265,113.15,113.15,113.12,113.12,980
266,113.155,113.155,113.155,113.155,100
267,113.135,113.145,113.135,113.14,1300
268,113.14,113.14,113.13,113.13,313
269,113.135,113.135,113.12,113.12,200
270,113.13,113.13,113.13,113.13,300
272,113.1001,113.13,113.1001,113.13,600
273,113.12,113.12,113.1146,113.1146,540
274,113.14,113.14,113.13,113.13,300
275,113.13,113.1326,113.13,113.1326,700
276,113.14,113.14,113.12,113.13,600
277,113.1201,113.14,113.1201,113.14,500
278,113.13,113.15,113.13,113.14,600
279,113.15,113.15,113.12,113.13,700
280,113.14,113.14,113.14,113.14,200
281,113.125,113.15,113.11,113.15,1200
282,113.11,113.11,113.11,113.11,200
283,113.13,113.13,113.1,113.11,500
284,113.13,113.13,113.13,113.13,200
285,113.14,113.14,113.14,113.14,100
286,113.137,113.16,113.137,113.16,300
287,113.14,113.14,113.14,113.14,200
288,113.13,113.13,113.13,113.13,100
289,113.145,113.15,113.145,113.15,500
290,113.09,113.15,113.09,113.15,2000
291,113.09,113.11,113.09,113.11,449
292,113.11,113.11,113.11,113.11,100
293,113.14,113.14,113.07,113.1,4100
294,113.15,113.15,113.1301,113.1436,1535
295,113.14,113.14,113.14,113.14,100
296,113.14,113.14,113.14,113.14,100
297,113.18,113.18,113.14,113.14,813
298,113.17,113.17,113.17,113.17,100
299,113.17,113.17,113.17,113.17,400
300,113.18,113.19,113.17,113.17,428
303,113.17,113.17,113.17,113.17,100
304,113.13,113.19,113.13,113.187,1180
305,113.13,113.17,113.125,113.15,1200
306,113.14,113.15,113.14,113.14,600
307,113.14,113.15,113.13,113.15,1100
308,113.15,113.15,113.1101,113.12,2817
309,113.14,113.15,113.14,113.15,800
310,113.12,113.14,113.12,113.14,400
311,113.1,113.1,113.1,113.1,100
312,113.11,113.14,113.07,113.1001,3449
313,113.11,113.11,113.08,113.08,200
314,113.0801,113.11,113.0801,113.1,800
315,113.11,113.11,113.1,113.1,910
317,113.08,113.08,113.08,113.08,100
318,113.01,113.07,113.01,113.07,700
319,113.02,113.03,113.02,113.03,500
320,113.01,113.01,113.01,113.01,100
321,113.01,113.03,113.01,113.03,1000
323,113.03,113.05,113.03,113.03,600
324,113.07,113.07,113.04,113.04,1200
325,113.07,113.07,113.06,113.06,500
326,113.02,113.06,113,113.06,1660
327,113,113,112.98,112.98,200
328,112.98,112.99,112.97,112.99,400
329,112.96,112.97,112.96,112.97,300
330,112.98,112.98,112.95,112.95,600
332,112.99,112.99,112.98,112.98,300
333,112.96,112.9999,112.96,112.99,2500
334,112.92,112.97,112.92,112.97,800
335,112.9194,112.9194,112.9194,112.9194,100
336,112.9204,112.9204,112.9204,112.9204,140
337,112.85,112.93,112.85,112.929,952
338,112.83,112.88,112.83,112.87,1200
339,112.82,112.85,112.82,112.84,3327
340,112.75,112.83,112.75,112.83,2400
341,112.8,112.8,112.76,112.76,3400
342,112.79,112.8,112.79,112.795,1400
344,112.8,112.82,112.8,112.8,1814
345,112.81,112.81,112.81,112.81,160
346,112.8,112.8,112.78,112.8,1100
347,112.82,112.83,112.8,112.8,2800
348,112.82,112.82,112.82,112.82,100
349,112.87,112.87,112.84,112.84,2050
350,112.865,112.87,112.86,112.86,650
351,112.87,112.87,112.85,112.85,200
352,112.8,112.85,112.8,112.85,1846
354,112.82,112.82,112.79,112.79,300
355,112.82,112.84,112.82,112.82,1142
356,112.8122,112.8122,112.8122,112.8122,100
357,112.81,112.82,112.81,112.82,900
358,112.82,112.82,112.81,112.82,700
359,112.81,112.82,112.81,112.81,400
360,112.81,112.8201,112.81,112.82,900
361,112.83,112.83,112.82,112.83,1726
362,112.84,112.84,112.82,112.82,2029
363,112.88,112.88,112.86,112.86,600
364,112.89,112.89,112.89,112.89,100
365,112.89,112.89,112.85,112.89,4117
366,112.9,112.91,112.88,112.88,800
367,112.92,112.94,112.9,112.9,2202
368,112.93,112.93,112.92,112.92,900
369,112.93,112.93,112.91,112.91,502
370,112.95,112.95,112.94,112.94,700
371,112.94,112.96,112.94,112.95,1635
372,112.93,112.95,112.93,112.93,1334
373,112.92,112.93,112.92,112.92,500
374,112.92,112.92,112.91,112.91,300
375,112.92,112.92,112.91,112.9199,1302
376,112.93,112.94,112.92,112.92,4650
377,112.92,112.94,112.92,112.93,600
378,112.95,112.95,112.93,112.93,2280
379,112.94,112.955,112.94,112.955,900
380,112.95,112.95,112.94,112.94,994
381,112.98,112.98,112.95,112.95,2701
382,112.99,112.99,112.97,112.97,1300
383,112.99,113.01,112.98,112.98,3807
384,112.99,113,112.99,112.99,600
385,112.96,112.99,112.94,112.99,6300
386,112.945,112.96,112.945,112.95,2795
387,112.94,112.96,112.93,112.945,4713
388,112.98,112.98,112.93,112.94,4483
389,112.96,112.9899,112.96,112.9899,4556
390,112.96,112.98,112.95,112.96,9510
