EOG,EOG Resources,Energy,3,Oil & Gas Exploration & Production,52152656641,3204568
a1499358600,89.1000,89.1000,89.0000,89.0000,18242
1,88.9600,89.1000,88.9000,88.9500,3656
2,89.0400,89.1950,89.0400,89.1010,5719
3,89.1250,89.2500,89.1250,89.2200,4340
4,89.2600,89.2800,89.1900,89.2390,2500
5,89.2300,89.2300,89.0100,89.0700,6844
6,88.9800,88.9800,88.8800,88.9100,2413
7,88.9100,88.9800,88.8900,88.9350,6000
8,88.9350,88.9350,88.8100,88.8250,3402
9,88.8000,89.0000,88.7700,88.9400,4805
10,88.9600,88.9600,88.8850,88.9350,1400
11,88.9400,88.9790,88.9000,88.9000,2536
12,88.9200,89.0000,88.9000,89.0000,3515
13,89.0200,89.0369,88.8800,88.9500,3771
14,88.9500,88.9700,88.8900,88.9400,29860
15,88.9600,89.0400,88.9400,88.9600,5977
16,88.9300,88.9500,88.8900,88.8900,3300
17,88.8700,88.9000,88.7750,88.8500,7637
18,88.8800,88.9900,88.8800,88.9100,4450
19,88.9100,89.0200,88.8900,88.9000,4500
20,88.9300,88.9900,88.9000,88.9900,3563
21,88.9800,88.9800,88.8650,88.8900,6039
22,88.8700,88.8800,88.8400,88.8400,1900
23,88.8301,88.8400,88.7800,88.7900,1440
24,88.8200,88.8900,88.8100,88.8900,4871
25,88.8800,88.8900,88.8500,88.8500,1740
26,88.8700,89.0600,88.8700,89.0400,5900
27,89.0400,89.1700,89.0400,89.1008,10958
28,89.0750,89.1300,89.0750,89.0937,1719
29,89.0800,89.0800,88.9900,89.0200,4285
30,89.0500,89.1200,89.0300,89.1200,4500
31,89.1300,89.1500,89.0200,89.0200,2700
32,89.0700,89.1500,89.0700,89.1400,7000
33,89.1500,89.2200,89.1401,89.2100,7150
34,89.2100,89.2500,89.2100,89.2500,9677
35,89.2400,89.3599,89.2400,89.3000,5700
36,89.3116,89.3400,89.2900,89.2900,3604
37,89.2700,89.2738,89.2100,89.2100,1958
38,89.2100,89.2400,89.2000,89.2100,4275
39,89.1900,89.1900,89.1500,89.1800,3004
40,89.1650,89.1650,89.0700,89.0800,2500
41,89.1100,89.1100,89.0600,89.0900,2750
42,89.1100,89.1100,89.0500,89.0500,4648
43,89.0550,89.0700,89.0000,89.0100,2420
44,89.0050,89.0600,89.0050,89.0400,5851
45,89.0300,89.0499,89.0100,89.0300,1268
46,89.0150,89.1300,89.0150,89.1200,6615
47,89.1400,89.1400,89.1400,89.1400,300
48,89.1600,89.1600,89.0900,89.1000,1651
49,89.0700,89.0730,89.0100,89.0150,1946
50,89.0100,89.0300,89.0000,89.0300,7667
51,89.0300,89.0400,88.9700,89.0200,16481
52,89.0200,89.0200,88.9150,88.9400,12705
53,88.9400,88.9524,88.9200,88.9524,4710
54,88.9800,88.9900,88.9500,88.9500,3300
55,88.9300,88.9300,88.8600,88.8700,4950
56,88.8700,88.9385,88.8500,88.9250,4850
57,88.9300,88.9900,88.9300,88.9700,3200
58,88.9900,89.0100,88.9600,88.9950,5221
59,88.9800,89.0000,88.9700,89.0000,1700
60,89.0200,89.0600,89.0200,89.0600,1612
61,89.0900,89.0900,89.0300,89.0350,2000
62,89.0350,89.0350,89.0100,89.0200,900
63,89.0000,89.0100,88.8750,88.9200,5448
64,88.9100,88.9100,88.8800,88.8850,1872
65,88.8850,88.9000,88.8300,88.9000,5800
66,88.9100,88.9300,88.9000,88.9100,3600
67,88.9000,88.9000,88.8800,88.8850,3465
68,88.9000,88.9000,88.8601,88.8601,1821
69,88.8700,88.8700,88.8400,88.8600,5378
70,88.8400,88.8500,88.8000,88.8428,6655
71,88.8250,88.8500,88.7801,88.8500,3839
72,88.8200,88.8200,88.7900,88.8000,1300
73,88.8400,88.8700,88.8100,88.8600,5790
74,88.8400,88.9000,88.8400,88.8500,3439
75,88.8500,88.8700,88.8200,88.8300,4100
76,88.8500,88.8700,88.8300,88.8400,1371
77,88.8600,88.9000,88.8600,88.8900,4050
78,88.9100,88.9100,88.8800,88.9000,500
79,88.9200,88.9600,88.8800,88.9600,3887
80,88.9500,88.9600,88.9100,88.9500,1900
81,88.9700,88.9726,88.9100,88.9100,1300
82,88.9200,88.9200,88.9200,88.9200,200
83,88.9000,88.9500,88.9000,88.9300,3342
84,88.9600,88.9900,88.9400,88.9900,3333
85,88.9900,88.9900,88.9500,88.9800,4600
86,88.9900,89.0000,88.9800,88.9800,3100
87,88.9800,88.9900,88.9400,88.9400,2601
88,88.9400,88.9800,88.9389,88.9800,3040
89,88.9800,89.0100,88.9600,88.9600,3537
90,88.9600,89.0100,88.9600,89.0100,2695
91,89.0100,89.0200,88.9700,88.9700,700
92,88.9750,88.9800,88.9600,88.9600,1331
93,88.9801,88.9900,88.9600,88.9600,2800
94,88.9600,89.0000,88.9500,88.9900,4800
95,89.0100,89.0200,88.9400,88.9400,2400
96,88.9700,88.9700,88.9400,88.9600,2400
97,88.9700,89.0090,88.9500,88.9700,5889
98,88.9900,89.0700,88.9900,89.0600,5656
99,89.0700,89.0800,88.9910,89.0000,4500
100,89.0300,89.1000,89.0300,89.0800,3029
101,89.0800,89.1000,89.0200,89.0900,5909
102,89.0500,89.0800,89.0400,89.0800,3750
103,89.1100,89.1347,89.0800,89.0800,3200
104,89.1100,89.1100,89.0800,89.0900,10481
105,89.0900,89.1400,89.0810,89.1200,5550
106,89.1400,89.1500,89.0700,89.0900,2625
107,89.0900,89.0900,89.0200,89.0200,1150
108,89.0300,89.0300,88.9900,89.0100,6375
109,89.0000,89.0000,88.9700,88.9800,5009
110,88.9700,88.9800,88.9300,88.9500,3395
111,88.9700,88.9700,88.9100,88.9200,2100
112,88.9600,88.9600,88.9100,88.9100,1300
113,88.9500,88.9900,88.9500,88.9500,1474
114,88.9300,88.9500,88.9200,88.9300,2700
115,88.9400,88.9800,88.9300,88.9600,2340
116,88.9700,89.0000,88.9700,88.9950,1200
117,89.0400,89.0600,88.9800,88.9800,2371
118,89.0000,89.0500,89.0000,89.0500,3500
119,89.0800,89.0800,89.0200,89.0300,2500
120,89.0400,89.0700,89.0400,89.0550,1700
121,89.0700,89.0900,89.0700,89.0700,2652
122,89.0700,89.1100,89.0500,89.1100,2652
123,89.1100,89.1500,89.1000,89.1300,2379
124,89.1200,89.1800,89.1000,89.1800,2800
125,89.1900,89.2200,89.1900,89.1972,1319
126,89.2300,89.2300,89.2200,89.2300,2100
127,89.2300,89.2300,89.1900,89.2165,1764
128,89.2300,89.3400,89.2100,89.3400,3900
129,89.3400,89.4200,89.3400,89.3900,3719
130,89.4000,89.5100,89.4000,89.4800,3318
131,89.5000,89.6100,89.5000,89.6100,1474
132,89.6300,89.6800,89.6200,89.6700,6613
133,89.6900,89.7300,89.6300,89.6300,1700
134,89.6100,89.6100,89.5600,89.5700,1200
135,89.5900,89.5900,89.4900,89.4900,900
136,89.5100,89.6400,89.5100,89.5900,2500
137,89.6200,89.6500,89.6200,89.6500,500
138,89.6700,89.6700,89.6100,89.6100,1060
139,89.5410,89.5410,89.5400,89.5400,600
140,89.5300,89.5300,89.5000,89.5200,1260
141,89.5300,89.5900,89.5200,89.5300,4294
142,89.5101,89.5200,89.4500,89.4500,2202
143,89.4300,89.4300,89.4000,89.4000,500
144,89.4400,89.4400,89.4000,89.4200,2150
145,89.4000,89.4000,89.3400,89.3400,1800
146,89.3600,89.4000,89.3500,89.3500,2718
147,89.3800,89.4100,89.3600,89.4000,3687
148,89.3800,89.3800,89.3100,89.3100,500
149,89.2900,89.2900,89.2600,89.2600,1041
150,89.2300,89.2800,89.2300,89.2500,1418
151,89.2100,89.2400,89.1900,89.2400,3310
152,89.2000,89.2100,89.1600,89.2000,1828
153,89.1800,89.2000,89.1700,89.1700,713
154,89.1400,89.1700,89.1400,89.1600,3000
155,89.1800,89.2200,89.1800,89.2200,600
156,89.2000,89.2000,89.2000,89.2000,200
157,89.1900,89.1900,89.1900,89.1900,800
158,89.2000,89.2225,89.2000,89.2100,3100
159,89.2150,89.2900,89.2100,89.2800,4800
160,89.2836,89.2836,89.2600,89.2800,2700
161,89.2700,89.2800,89.2500,89.2789,2625
162,89.3000,89.3500,89.2900,89.3500,3000
163,89.3700,89.4600,89.3700,89.4400,1905
164,89.4500,89.5900,89.4500,89.5900,1987
165,89.5600,89.5600,89.5100,89.5100,1993
166,89.5100,89.5100,89.4500,89.5000,1600
167,89.5200,89.5500,89.5100,89.5100,1600
168,89.5000,89.5700,89.5000,89.5600,2608
169,89.5750,89.6300,89.5750,89.5800,3350
170,89.5700,89.5700,89.5200,89.5200,1700
171,89.5500,89.5500,89.4900,89.4900,952
172,89.4600,89.5100,89.4600,89.5100,600
173,89.5300,89.5300,89.4900,89.4900,900
174,89.4700,89.4700,89.4000,89.4000,1415
175,89.4100,89.4700,89.4000,89.4700,3159
176,89.4700,89.5200,89.4600,89.4900,2100
177,89.5100,89.5100,89.4750,89.4750,581
178,89.4800,89.5200,89.4500,89.5200,4142
179,89.5300,89.5300,89.4600,89.4600,1850
180,89.4500,89.4500,89.4200,89.4500,1167
181,89.4400,89.4400,89.4100,89.4350,2900
182,89.4200,89.4268,89.3800,89.3800,1940
183,89.3800,89.3900,89.3600,89.3800,1800
184,89.3500,89.3800,89.3400,89.3400,1100
185,89.3400,89.3600,89.3400,89.3400,1000
186,89.3600,89.3800,89.3310,89.3400,3316
187,89.3400,89.3500,89.3300,89.3500,1500
188,89.3200,89.3600,89.3200,89.3600,1900
189,89.3600,89.3800,89.3100,89.3800,4900
190,89.3800,89.4314,89.3700,89.4300,5603
191,89.4400,89.5100,89.3950,89.4700,12571
192,89.4800,89.6000,89.4750,89.5800,3599
193,89.6100,89.6700,89.6100,89.6650,1792
194,89.6650,89.6900,89.6600,89.6800,2200
195,89.7000,89.7100,89.6636,89.6636,700
196,89.6800,89.6800,89.6200,89.6575,2179
197,89.6600,89.7200,89.6600,89.7190,1515
198,89.7200,89.8000,89.7050,89.8000,2500
199,89.7800,89.8000,89.7000,89.7000,3700
200,89.7200,89.7200,89.6800,89.6850,2800
201,89.7000,89.7100,89.6900,89.7000,1300
202,89.7000,89.7400,89.7000,89.7200,4846
203,89.7300,89.7300,89.6700,89.6700,2362
204,89.6750,89.7000,89.6700,89.6800,3465
205,89.6600,89.7100,89.6600,89.6700,1700
206,89.6600,89.6750,89.5900,89.6400,2503
207,89.6000,89.6112,89.5900,89.5900,1230
208,89.5800,89.6100,89.5400,89.6050,22441
209,89.6100,89.6400,89.6100,89.6200,5714
210,89.6150,89.6350,89.6150,89.6350,840
211,89.6500,89.7250,89.6500,89.7000,7271
212,89.7000,89.7100,89.6900,89.6900,1402
213,89.6900,89.6900,89.6900,89.6900,200
214,89.6900,89.6900,89.6500,89.6500,1400
215,89.6550,89.6900,89.6550,89.6900,3700
216,89.7100,89.7600,89.7050,89.7600,1700
217,89.7800,89.8100,89.7600,89.8099,4550
218,89.8100,89.8100,89.7700,89.7900,2288
219,89.8000,89.8000,89.7300,89.7550,13394
220,89.7500,89.7500,89.7500,89.7500,800
221,89.7300,89.7300,89.7100,89.7100,600
222,89.7400,89.7500,89.7100,89.7200,4805
223,89.7100,89.7500,89.7100,89.7250,1897
224,89.7400,89.8100,89.7400,89.8000,4743
225,89.8200,89.9000,89.8200,89.9000,3456
226,89.9000,89.9100,89.8900,89.9100,17152
227,89.9100,90.0400,89.8800,90.0400,17585
228,90.0200,90.1000,90.0200,90.0900,8553
229,90.0750,90.0750,90.0700,90.0700,300
230,90.0750,90.0900,90.0500,90.0790,5010
231,90.0800,90.1000,90.0700,90.0700,2400
232,90.0800,90.1200,90.0700,90.1150,6711
233,90.1100,90.1150,90.0900,90.0950,2100
234,90.0950,90.1000,90.0660,90.0660,3230
235,90.0700,90.0700,90.0500,90.0500,1610
236,90.0476,90.0700,90.0476,90.0600,1479
237,90.0600,90.1100,90.0500,90.0900,4610
238,90.1000,90.1600,90.1000,90.1300,3846
239,90.1200,90.1500,90.1100,90.1400,2500
240,90.1400,90.1400,90.1100,90.1270,1550
241,90.1250,90.1500,90.0900,90.1300,3887
242,90.1300,90.1600,90.1200,90.1300,4600
243,90.1300,90.1600,90.1100,90.1110,3525
244,90.1276,90.1340,90.0900,90.1000,2710
245,90.1000,90.1000,90.0000,90.0400,9471
246,90.0400,90.0400,90.0100,90.0300,2300
247,90.0200,90.0400,90.0100,90.0260,1000
248,90.0300,90.0300,90.0300,90.0300,300
249,90.0300,90.0300,90.0000,90.0300,7473
250,90.0200,90.1100,90.0200,90.1100,7693
251,90.1000,90.1400,90.1000,90.1400,7200
252,90.1000,90.1400,90.0900,90.0900,1300
253,90.0900,90.1050,90.0700,90.0700,3200
254,90.0800,90.0850,90.0100,90.0600,3546
256,90.0500,90.0800,90.0300,90.0800,9795
257,90.0800,90.1600,90.0800,90.1600,1100
258,90.1300,90.1450,90.1000,90.1100,4500
259,90.1000,90.1000,90.0800,90.0800,2400
260,90.0800,90.1300,90.0765,90.1050,4945
261,90.0700,90.0850,90.0300,90.0600,2100
262,90.0603,90.1100,90.0306,90.0914,3642
263,90.1150,90.1300,90.0900,90.0900,2978
264,90.1000,90.1000,90.1000,90.1000,807
265,90.0950,90.1250,90.0600,90.0600,7071
266,90.0550,90.0700,90.0500,90.0700,5900
267,90.0500,90.0600,90.0439,90.0500,4839
268,90.0400,90.1100,90.0150,90.0950,14912
269,90.1000,90.1690,90.1000,90.1690,1346
270,90.1300,90.1850,90.1100,90.1700,5789
271,90.1800,90.2500,90.1600,90.2500,6227
272,90.2700,90.3100,90.2700,90.3000,2801
273,90.3000,90.3400,90.3000,90.3370,5178
274,90.3600,90.4500,90.3600,90.4325,2600
275,90.4100,90.4400,90.3800,90.4100,7946
276,90.3900,90.4000,90.3700,90.3900,3150
277,90.4280,90.4700,90.4200,90.4500,3130
278,90.4700,90.4700,90.4000,90.4200,4699
279,90.3900,90.4000,90.3500,90.3895,5949
280,90.4100,90.4100,90.3700,90.3800,512
281,90.4000,90.4600,90.4000,90.4450,4193
282,90.4400,90.4600,90.4400,90.4600,2282
283,90.4500,90.5500,90.3900,90.5300,8615
284,90.5300,90.5400,90.4800,90.4800,4900
285,90.4800,90.5700,90.4800,90.5400,1300
286,90.5700,90.5800,90.4900,90.4900,4200
287,90.4950,90.5600,90.4950,90.5500,5591
288,90.5500,90.6200,90.5100,90.6200,7176
289,90.6200,90.7200,90.6200,90.7100,14366
290,90.7157,90.7400,90.6300,90.6700,8359
291,90.6800,90.7600,90.6797,90.7500,7908
292,90.7450,90.7700,90.6900,90.7000,15200
293,90.6950,90.7200,90.6800,90.6800,4000
294,90.6700,90.7300,90.6615,90.7200,7100
295,90.7050,90.7300,90.6800,90.7000,14125
296,90.6800,90.6900,90.6200,90.6300,8200
297,90.6100,90.6550,90.6100,90.6500,5381
298,90.6500,90.7050,90.6400,90.7000,5558
299,90.7100,90.7600,90.7100,90.7600,6577
300,90.7596,90.8000,90.7300,90.7300,11060
301,90.7300,90.7400,90.6600,90.6900,11950
302,90.6600,90.6843,90.6400,90.6500,7830
303,90.6900,90.7500,90.6900,90.7400,3865
304,90.7200,90.7800,90.7200,90.7800,6980
305,90.7800,90.8500,90.7800,90.8400,9010
306,90.8350,90.8700,90.7700,90.7800,11421
307,90.7600,90.7600,90.6300,90.6580,9136
308,90.6400,90.6600,90.6200,90.6600,4593
309,90.6400,90.6500,90.6100,90.6250,6066
310,90.6100,90.6400,90.5900,90.6200,6968
311,90.6200,90.7200,90.6200,90.7050,8876
312,90.6900,90.7100,90.6700,90.6900,4200
313,90.6900,90.7300,90.6900,90.7204,3030
314,90.7250,90.7250,90.6600,90.6600,7545
315,90.6500,90.6800,90.6300,90.6800,3200
316,90.6700,90.7600,90.6700,90.7500,13019
317,90.7500,90.7900,90.6900,90.6900,8063
318,90.6900,90.7000,90.6400,90.6800,11016
319,90.6900,90.7100,90.6800,90.7000,2700
320,90.7200,90.7700,90.7200,90.7700,7189
321,90.7732,90.7800,90.7300,90.7500,5422
322,90.7450,90.7700,90.7300,90.7675,6489
323,90.7600,90.7800,90.7200,90.7800,8463
324,90.7700,90.8200,90.7600,90.8150,21920
325,90.8300,90.8350,90.8000,90.8190,6958
326,90.8300,90.8700,90.8300,90.8400,11284
327,90.8320,90.8350,90.8100,90.8200,6100
328,90.8000,90.8500,90.8000,90.8400,6350
329,90.8500,90.8700,90.8400,90.8600,3302
330,90.8400,90.8900,90.8400,90.8900,7895
331,90.9000,90.9700,90.8800,90.9600,5416
332,90.9600,91.0000,90.9600,91.0000,11102
333,91.0100,91.0500,90.9800,91.0300,14250
334,91.0250,91.0600,91.0000,91.0300,14893
335,91.0350,91.0500,91.0100,91.0100,8189
336,91.0300,91.0300,90.9800,90.9800,11510
337,90.9700,90.9700,90.8100,90.8100,6560
338,90.8000,90.8125,90.7700,90.7850,11157
339,90.7800,90.7800,90.7300,90.7400,2800
340,90.7400,90.7400,90.6300,90.6300,5150
341,90.6100,90.6199,90.5300,90.5700,8983
342,90.5800,90.5900,90.5400,90.5600,7591
343,90.5600,90.5700,90.5300,90.5500,4005
344,90.5500,90.5700,90.5500,90.5600,2389
345,90.5500,90.5700,90.5200,90.5700,7610
346,90.5800,90.5800,90.5600,90.5800,4925
347,90.5800,90.7100,90.5800,90.6900,6663
348,90.7000,90.7100,90.6300,90.6500,7837
349,90.6600,90.7000,90.6400,90.6700,8550
350,90.6700,90.6950,90.6500,90.6950,5550
351,90.6900,90.7500,90.6800,90.7500,6157
352,90.7600,90.8300,90.7600,90.8100,5440
353,90.8200,90.8500,90.8100,90.8200,7648
354,90.8200,90.8700,90.8100,90.8600,3404
355,90.8800,90.8800,90.8100,90.8400,5809
356,90.8400,90.8781,90.8400,90.8780,4155
357,90.8600,90.8700,90.8200,90.8500,14706
358,90.8500,90.8600,90.8200,90.8600,4422
359,90.8485,90.9100,90.8400,90.8800,12537
360,90.8900,90.9000,90.8700,90.9000,2800
361,90.8900,90.8900,90.7600,90.7600,14012
362,90.7600,90.8400,90.7600,90.8100,7567
363,90.8200,90.8500,90.7300,90.7800,9100
364,90.7800,90.7800,90.7000,90.7200,10908
365,90.7100,90.8300,90.7001,90.8300,10259
366,90.8300,90.8600,90.8200,90.8300,5120
367,90.8300,90.8800,90.8205,90.8500,8345
368,90.8400,90.8425,90.7800,90.8200,9166
369,90.8200,90.8700,90.8100,90.8650,9500
370,90.8700,90.8750,90.8597,90.8644,7332
371,90.8500,90.8600,90.7900,90.8150,15680
372,90.8100,90.8500,90.8100,90.8400,9141
373,90.8300,90.8900,90.8300,90.8850,16327
374,90.8900,90.9200,90.8800,90.9200,6411
375,90.9150,90.9500,90.9000,90.9500,14970
376,90.9350,90.9500,90.8500,90.8800,21903
377,90.8850,90.9700,90.8800,90.9500,18076
378,90.9550,90.9800,90.9500,90.9750,16163
379,90.9750,90.9900,90.9550,90.9700,18988
380,90.9700,91.0000,90.9500,90.9900,20362
381,91.0000,91.0300,90.9600,90.9700,27786
382,90.9700,90.9700,90.9000,90.9500,26567
383,90.9500,90.9500,90.8900,90.9000,15941
384,90.9100,90.9600,90.9100,90.9400,20120
385,90.9300,90.9400,90.8900,90.8900,27555
386,90.8900,90.8900,90.8600,90.8900,34261
387,90.9000,90.9300,90.9000,90.9300,17150
388,90.9300,90.9750,90.9200,90.9400,28537
389,90.9400,90.9600,90.9400,90.9400,30425
390,90.9300,90.9300,90.8300,90.8400,70703