PPG,PPG Industries,Materials,8,Specialty Chemicals,27248598155,1180103
a149935860069,108.5600,108.5650,108.5300,108.5300,7558
370,108.5300,108.5300,108.5100,108.5100,2896
371,108.5100,108.5100,108.4900,108.5000,2157
372,108.4900,108.4900,108.4514,108.4900,8462
373,108.4900,108.4900,108.4600,108.4600,1775
374,108.4600,108.4750,108.4600,108.4750,6100
375,108.4700,108.4750,108.4000,108.4300,5843
376,108.4000,108.4100,108.3950,108.4100,11174
377,108.4100,108.4100,108.4100,108.4100,2813
378,108.4050,108.4050,108.3800,108.3850,6082
379,108.3800,108.3900,108.3800,108.3900,4250
380,108.3900,108.4100,108.3800,108.4050,9305
381,108.4050,108.4100,108.4000,108.4000,5970
382,108.4000,108.4000,108.3450,108.3700,7450
383,108.3625,108.3900,108.3600,108.3800,6401
384,108.3900,108.3950,108.3450,108.3600,13756
385,108.3700,108.3700,108.3500,108.3550,3700
386,108.3550,108.3700,108.3450,108.3600,11776
387,108.3500,108.3600,108.3500,108.3500,7984
388,108.3400,108.3450,108.3100,108.3200,14467
389,108.3200,108.3400,108.3100,108.3200,10356
390,108.3200,108.4000,108.3100,108.3600,35140
0,107.8600,107.8600,107.8600,107.8600,9154
1,107.6550,107.6550,107.6550,107.6550,100
2,107.6500,107.8300,107.6500,107.7700,1600
3,107.8900,108.3600,107.8900,108.3600,1700
4,108.2800,108.3000,108.1450,108.2500,3700
5,108.2500,108.2700,108.0650,108.1250,2200
6,108.0700,108.1700,108.0000,108.1300,3500
7,108.0600,108.0600,107.9900,108.0000,1800
8,107.9600,108.0000,107.8700,107.9100,1800
9,107.9000,108.0300,107.9000,108.0200,2700
10,107.9850,108.0800,107.9850,108.0300,2106
11,108.0100,108.0100,107.8700,107.9200,4800
12,107.8700,107.9100,107.8700,107.8700,1423
13,107.8900,108.0100,107.8700,108.0100,6400
14,108.0100,108.0100,107.9000,107.9350,3700
15,107.9700,108.0400,107.9700,108.0000,4200
16,108.0100,108.0300,107.9400,108.0000,3302
17,107.9700,107.9700,107.8600,107.8600,1700
18,107.8800,107.9000,107.8500,107.9000,1302
19,107.9000,107.9600,107.8500,107.9100,5399
20,107.9400,108.0200,107.9300,107.9500,2400
21,107.9600,108.0500,107.9580,108.0500,1856
22,108.0300,108.1000,107.9900,108.0400,3400
23,107.9900,107.9900,107.9900,107.9900,100
24,107.9900,108.0800,107.9700,108.0700,3850
25,108.0400,108.0800,107.9950,108.0400,4500
26,108.0550,108.1100,108.0500,108.1100,1500
27,108.0450,108.0450,107.9400,107.9400,1800
28,107.9500,108.0400,107.9400,108.0400,3600
29,107.9950,108.0400,107.9100,107.9200,3376
30,107.9000,107.9100,107.8300,107.8300,3695
31,107.8500,108.0000,107.8300,108.0000,5350
32,107.9600,107.9600,107.8500,107.9300,4634
33,107.9000,107.9300,107.8900,107.9300,2401
34,107.9150,107.9150,107.9150,107.9150,100
35,107.9000,108.0000,107.8800,107.9601,3940
36,107.9800,108.0400,107.9800,108.0400,2150
37,108.0200,108.0400,107.9600,107.9800,4653
38,108.0000,108.0186,108.0000,108.0186,2442
39,108.0000,108.0400,107.9500,108.0400,5944
40,108.0425,108.0500,107.9500,107.9800,5500
41,108.0000,108.0100,107.9850,107.9850,400
42,107.9600,107.9600,107.8800,107.8800,2399
43,107.9100,107.9900,107.9100,107.9600,3938
44,107.9550,107.9700,107.9200,107.9600,5600
45,107.9400,107.9800,107.9100,107.9800,5700
46,107.9600,108.0700,107.9600,108.0500,1416
47,108.0400,108.0500,107.9900,108.0200,4101
48,108.0100,108.0200,107.9600,107.9700,1800
50,107.9700,108.0600,107.9600,108.0300,4500
51,108.0300,108.0300,107.9500,107.9600,3408
52,107.9800,108.0200,107.9800,108.0000,3592
53,108.0100,108.0300,108.0000,108.0100,2800
54,108.0000,108.0500,107.9800,108.0000,33665
55,108.0000,108.0100,107.9600,108.0000,4534
56,108.0000,108.0000,107.9500,107.9500,6596
57,107.9700,108.0800,107.9700,108.0750,5920
58,108.0700,108.0800,108.0100,108.0200,4809
59,108.0000,108.0100,107.9600,107.9700,7586
60,107.9750,107.9900,107.9600,107.9700,6200
61,107.9625,108.0200,107.9150,108.0200,4949
62,108.0000,108.0300,108.0000,108.0300,2200
63,108.0300,108.0300,108.0000,108.0050,5700
64,108.0200,108.0200,108.0100,108.0100,400
65,108.0000,108.0000,107.9600,107.9900,3685
66,108.0100,108.0294,108.0000,108.0000,3081
67,108.0000,108.0600,108.0000,108.0600,4500
68,108.0500,108.0700,108.0500,108.0700,2300
69,108.0600,108.0600,108.0100,108.0150,1500
70,108.0000,108.0250,108.0000,108.0000,2500
71,108.0200,108.0500,108.0200,108.0200,3262
72,108.0000,108.0300,108.0000,108.0100,5143
73,108.0200,108.0200,108.0000,108.0100,2100
74,108.0150,108.0300,108.0000,108.0100,10003
75,108.0100,108.0200,107.9700,108.0000,8994
76,108.0000,108.0000,107.9700,107.9700,3533
77,107.9800,108.0400,107.9800,108.0200,4280
78,108.0100,108.0300,108.0000,108.0300,4423
79,108.0300,108.0700,108.0300,108.0550,3500
80,108.0500,108.0550,108.0100,108.0300,9199
81,108.0150,108.0250,108.0100,108.0200,3899
82,108.0100,108.0200,107.9500,107.9750,5748
83,107.9900,108.0100,107.9850,108.0050,2231
84,108.0000,108.0000,107.9800,108.0000,2099
85,108.0000,108.0100,108.0000,108.0100,2500
86,108.0000,108.0000,108.0000,108.0000,100
87,108.0000,108.0300,108.0000,108.0100,4155
88,108.0100,108.0200,108.0100,108.0150,1781
89,108.0100,108.0600,108.0000,108.0500,4270
90,108.0500,108.0500,108.0300,108.0500,4300
91,108.0400,108.0500,108.0400,108.0400,3235
92,108.0400,108.0700,108.0400,108.0700,2170
93,108.0603,108.0900,108.0500,108.0650,5544
94,108.0700,108.0700,108.0300,108.0350,2685
95,108.0300,108.0300,108.0100,108.0100,902
96,108.0000,108.0050,107.9700,107.9900,5946
97,107.9600,108.0100,107.9200,107.9200,5500
98,107.9400,107.9700,107.9300,107.9700,1597
99,107.9750,107.9800,107.9600,107.9800,900
100,107.9700,107.9900,107.9600,107.9800,2450
101,107.9800,107.9800,107.9800,107.9800,600
102,107.9787,107.9900,107.9787,107.9800,1453
103,108.0000,108.0050,107.9900,107.9900,1900
104,108.0000,108.0225,108.0000,108.0100,4510
105,108.0100,108.0100,107.9868,108.0050,2220
106,108.0150,108.0200,108.0100,108.0200,1345
107,108.0150,108.0150,108.0100,108.0100,500
108,108.0200,108.0200,107.9400,107.9400,2682
109,107.9400,107.9700,107.9200,107.9300,1800
110,107.9250,107.9400,107.9100,107.9400,2629
111,107.9400,107.9500,107.9300,107.9350,1485
112,107.9400,107.9400,107.9196,107.9300,1936
113,107.9200,107.9400,107.9167,107.9361,2181
114,107.9500,107.9800,107.9500,107.9700,1205
115,107.9900,108.0100,107.9900,108.0000,1250
116,108.0000,108.0000,108.0000,108.0000,1700
117,107.9950,107.9950,107.9700,107.9850,1600
118,107.9700,107.9860,107.9700,107.9800,1836
119,107.9800,108.0000,107.9800,108.0000,600
120,107.9800,108.0000,107.9800,107.9900,1100
122,107.9700,107.9700,107.9400,107.9500,2720
123,107.9600,108.0100,107.9600,107.9920,1942
124,107.9900,107.9900,107.9800,107.9800,807
125,107.9750,108.0050,107.9750,108.0050,2000
126,108.0000,108.0500,108.0000,108.0400,1800
127,108.0500,108.0500,108.0400,108.0400,734
128,108.0300,108.0400,107.9700,108.0150,3353
129,108.0200,108.0200,107.9700,108.0000,2106
130,108.0000,108.0200,108.0000,108.0100,550
131,108.0200,108.0300,107.9700,108.0100,7342
132,108.0150,108.0800,108.0100,108.0200,4055
133,108.0300,108.0600,108.0300,108.0600,590
134,108.0600,108.0600,108.0400,108.0400,200
135,108.0900,108.0950,108.0400,108.0750,3400
136,108.0800,108.0900,108.0600,108.0650,1600
137,108.0800,108.1000,108.0600,108.0700,5500
138,108.0900,108.0950,108.0600,108.0950,4000
139,108.0800,108.0800,108.0700,108.0700,989
140,108.0500,108.0600,108.0400,108.0500,800
141,108.0600,108.1000,108.0550,108.0850,2100
142,108.0800,108.1050,108.0750,108.1050,1000
143,108.1000,108.1200,108.1000,108.1100,700
144,108.1250,108.1400,108.1150,108.1200,1921
146,108.1000,108.1000,108.1000,108.1000,300
147,108.0800,108.0800,108.0001,108.0100,2362
148,108.0100,108.0300,108.0100,108.0300,600
149,108.0200,108.0200,108.0100,108.0200,550
150,108.0200,108.0233,108.0150,108.0150,944
151,108.0100,108.0100,107.9900,108.0100,2266
152,108.0000,108.0000,107.9600,107.9700,2200
154,107.9600,107.9900,107.9600,107.9900,559
155,108.0000,108.0000,107.9900,107.9900,1000
157,108.0000,108.0100,108.0000,108.0100,300
158,108.0100,108.0200,108.0100,108.0193,900
159,108.0250,108.0250,108.0000,108.0000,2312
160,108.0000,108.0050,108.0000,108.0050,300
161,108.0000,108.0000,107.9965,108.0000,1500
162,108.0000,108.0500,108.0000,108.0500,991
163,108.0800,108.0800,108.0800,108.0800,500
164,108.0700,108.0700,108.0400,108.0500,1500
165,108.0500,108.0500,108.0500,108.0500,400
166,108.0700,108.1200,108.0600,108.1200,900
168,108.0900,108.1100,108.0800,108.1100,470
169,108.0900,108.1200,108.0900,108.1000,1883
170,108.0800,108.0900,108.0700,108.0700,1200
171,108.0400,108.0400,108.0300,108.0300,400
172,108.0286,108.0600,108.0225,108.0600,2034
173,108.0700,108.0800,108.0600,108.0800,900
174,108.0600,108.0600,108.0500,108.0500,800
175,108.0400,108.0500,108.0400,108.0500,790
176,108.0300,108.0600,108.0300,108.0400,1000
177,108.0300,108.0450,108.0000,108.0125,1400
178,108.0000,108.0050,108.0000,108.0050,300
179,108.0000,108.0000,108.0000,108.0000,300
180,108.0150,108.0300,108.0150,108.0150,1010
181,108.0500,108.0500,108.0000,108.0000,1497
182,108.0100,108.0100,108.0000,108.0000,705
183,108.0000,108.0000,107.9800,107.9800,1012
184,107.9850,108.0000,107.9850,108.0000,700
185,107.9900,108.0000,107.9900,108.0000,200
188,108.0250,108.0250,107.9700,108.0100,2532
190,107.9700,107.9850,107.9600,107.9608,710
191,107.9700,107.9700,107.9600,107.9700,800
192,107.9600,107.9750,107.9500,107.9750,1200
193,107.9700,108.0500,107.9700,108.0500,745
194,108.0600,108.0600,108.0200,108.0200,878
195,108.0300,108.0300,108.0100,108.0100,1516
196,108.0000,108.0600,107.9700,107.9800,1605
198,108.0000,108.0000,108.0000,108.0000,100
199,108.0400,108.0400,108.0300,108.0300,200
200,108.0400,108.0700,108.0400,108.0700,400
201,108.0500,108.0700,108.0200,108.0500,1441
202,108.0300,108.0300,108.0300,108.0300,200
203,108.0500,108.0500,108.0500,108.0500,300
204,108.0500,108.0600,108.0400,108.0600,1650
205,108.0700,108.0700,108.0400,108.0400,1000
207,108.0600,108.0900,108.0500,108.0500,4800
208,108.0500,108.0700,108.0500,108.0700,2000
209,108.0850,108.0900,108.0700,108.0800,600
210,108.0700,108.0700,108.0600,108.0600,400
211,108.1000,108.1000,108.1000,108.1000,100
212,108.0900,108.0900,108.0600,108.0600,600
213,108.0600,108.1000,108.0600,108.0900,1009
214,108.0700,108.0700,108.0500,108.0600,1456
216,108.0500,108.0700,108.0500,108.0700,1444
217,108.0600,108.0600,108.0500,108.0500,400
219,108.0600,108.0600,108.0500,108.0500,1000
220,108.0700,108.0700,108.0700,108.0700,100
221,108.0600,108.0700,108.0500,108.0500,1000
222,108.0500,108.0500,108.0500,108.0500,100
223,108.0500,108.0500,108.0500,108.0500,100
224,108.0600,108.0700,108.0500,108.0650,610
225,108.0600,108.0600,108.0400,108.0400,900
227,108.0500,108.0500,108.0400,108.0400,378
228,108.0400,108.0400,108.0400,108.0400,100
230,108.0372,108.0600,108.0300,108.0600,672
233,108.0100,108.0300,108.0000,108.0300,516
234,108.0600,108.0600,108.0600,108.0600,100
235,108.0500,108.0500,108.0200,108.0500,400
236,108.0450,108.0600,108.0300,108.0400,1965
237,108.0400,108.0400,108.0300,108.0300,200
238,108.0500,108.0600,108.0400,108.0550,2400
239,108.0550,108.0700,108.0400,108.0700,900
241,108.0400,108.0400,108.0400,108.0400,100
242,108.0400,108.0700,108.0350,108.0700,600
243,108.0600,108.0600,108.0600,108.0600,100
244,108.0700,108.0700,108.0700,108.0700,300
245,108.0600,108.0600,108.0300,108.0300,1267
246,108.0400,108.0400,108.0300,108.0300,300
249,108.0200,108.0200,108.0200,108.0200,100
250,108.0100,108.0100,107.9700,107.9700,3770
251,107.9600,107.9600,107.9500,107.9500,1353
252,107.9410,107.9600,107.9356,107.9600,1000
253,107.9427,107.9550,107.9427,107.9550,2981
254,107.9600,107.9600,107.9500,107.9500,1200
255,107.9600,107.9800,107.9550,107.9800,1100
256,107.9750,107.9800,107.9750,107.9800,500
257,107.9800,107.9900,107.9800,107.9850,1100
258,107.9750,107.9750,107.9632,107.9750,1140
259,107.9750,107.9750,107.9600,107.9650,1200
260,107.9650,107.9800,107.9600,107.9800,800
261,107.9800,107.9850,107.9800,107.9850,1600
262,107.9800,107.9800,107.9800,107.9800,100
263,108.0000,108.0000,108.0000,108.0000,100
264,107.9960,107.9960,107.9700,107.9750,1100
265,107.9900,107.9900,107.9850,107.9885,1423
266,107.9980,108.0000,107.9700,107.9800,3300
267,107.9600,107.9600,107.9200,107.9300,2170
268,107.9260,107.9400,107.9260,107.9400,1818
269,107.9400,107.9500,107.9200,107.9200,1100
270,107.9272,107.9272,107.9272,107.9272,841
271,107.9200,107.9800,107.9200,107.9800,1300
272,107.9800,108.0193,107.9800,108.0193,1259
273,108.0258,108.0500,108.0001,108.0500,600
274,108.0300,108.0300,108.0300,108.0300,200
275,108.0600,108.0600,108.0500,108.0500,331
276,108.0300,108.0300,108.0200,108.0200,300
278,108.0500,108.1200,108.0500,108.1200,1110
279,108.0800,108.0900,108.0350,108.0500,2950
280,108.0600,108.0700,108.0450,108.0450,1775
281,108.0300,108.0300,108.0300,108.0300,100
282,108.0400,108.0400,108.0400,108.0400,100
283,108.0500,108.0700,108.0500,108.0700,700
284,108.0400,108.0400,108.0392,108.0392,520
286,108.0300,108.0300,108.0300,108.0300,150
287,108.0600,108.0700,108.0400,108.0400,900
288,108.0400,108.0800,108.0400,108.0500,2100
289,108.0300,108.0300,108.0300,108.0300,100
290,108.0600,108.1000,108.0600,108.0700,2410
291,108.0700,108.0700,108.0700,108.0700,400
292,108.0600,108.0750,108.0600,108.0750,200
293,108.0700,108.0700,108.0700,108.0700,900
294,108.0814,108.1000,108.0500,108.0500,1869
295,108.0800,108.1200,108.0650,108.1200,14200
296,108.1150,108.1500,108.1000,108.1500,1387
297,108.1400,108.1400,108.1400,108.1400,200
298,108.1100,108.1500,108.1100,108.1200,20694
299,108.1300,108.1600,108.1200,108.1600,5100
300,108.1650,108.1900,108.1650,108.1900,1300
301,108.1600,108.1700,108.1500,108.1650,1000
302,108.1650,108.1936,108.1650,108.1936,530
303,108.2000,108.2150,108.2000,108.2150,1037
304,108.2400,108.2700,108.2100,108.2500,2357
305,108.2500,108.2850,108.2500,108.2800,1446
306,108.2800,108.3300,108.2701,108.2900,7683
307,108.2850,108.3100,108.2850,108.2900,1306
308,108.2800,108.3000,108.2200,108.2200,2500
309,108.2200,108.2400,108.2000,108.2200,2864
310,108.2200,108.2200,108.1800,108.1800,4124
311,108.1700,108.1700,108.1450,108.1600,3400
312,108.1500,108.1700,108.1500,108.1700,5347
313,108.1800,108.2100,108.1800,108.2100,2721
314,108.2050,108.2050,108.1900,108.2000,900
315,108.2100,108.2200,108.2000,108.2100,4500
316,108.2200,108.2300,108.2200,108.2300,971
317,108.2400,108.2500,108.2300,108.2300,1794
318,108.2400,108.2507,108.2300,108.2507,2121
319,108.2550,108.2550,108.2550,108.2550,100
321,108.2700,108.2840,108.2600,108.2800,1252
322,108.2700,108.2900,108.2600,108.2900,1735
323,108.2900,108.3600,108.2900,108.3600,1300
324,108.3400,108.3600,108.3400,108.3400,600
325,108.3500,108.3500,108.3200,108.3380,2035
326,108.3400,108.3500,108.3200,108.3500,600
327,108.3200,108.3500,108.3000,108.3500,2300
328,108.3700,108.3700,108.3550,108.3634,353
329,108.3500,108.3600,108.3300,108.3600,1480
330,108.3700,108.3700,108.3400,108.3478,966
331,108.3400,108.3400,108.3400,108.3400,500
332,108.3500,108.4000,108.3500,108.3900,1785
333,108.3850,108.3850,108.3500,108.3500,1490
334,108.3500,108.3900,108.3300,108.3700,2600
335,108.3686,108.3686,108.3686,108.3686,138
336,108.3900,108.3900,108.3400,108.3700,2000
337,108.3500,108.3500,108.3200,108.3300,2010
338,108.3400,108.3500,108.3300,108.3400,500
339,108.3500,108.3900,108.3500,108.3900,902
340,108.3850,108.3850,108.3600,108.3600,1000
341,108.3400,108.3400,108.3000,108.3000,700
342,108.2800,108.2900,108.2500,108.2500,400
343,108.2699,108.2700,108.2475,108.2600,806
344,108.2600,108.2600,108.2500,108.2600,510
345,108.2800,108.3000,108.2750,108.3000,300
346,108.3100,108.3300,108.3100,108.3300,2100
347,108.3370,108.3500,108.3278,108.3400,1437
348,108.3600,108.3600,108.3200,108.3600,24632
349,108.3650,108.4460,108.3650,108.4460,3492
350,108.4500,108.5100,108.4500,108.5100,3670
351,108.5400,108.5600,108.4800,108.4800,3700
352,108.4820,108.5200,108.4740,108.5200,1725
353,108.5240,108.5300,108.4895,108.5000,3650
354,108.4900,108.5000,108.4350,108.4800,3112
355,108.4700,108.5100,108.4700,108.5100,26300
356,108.4800,108.5100,108.4800,108.4900,1295
357,108.4834,108.4900,108.4500,108.4700,2419
358,108.4700,108.4900,108.4700,108.4800,1385
359,108.4900,108.4900,108.4300,108.4300,2050
360,108.4200,108.4500,108.4100,108.4200,1649
361,108.4100,108.4100,108.3700,108.4000,1601
362,108.4000,108.4000,108.3900,108.3900,300
363,108.3900,108.3900,108.3700,108.3700,2833
364,108.3750,108.3750,108.3450,108.3450,1020
365,108.3450,108.3850,108.3300,108.3850,5412
366,108.3700,108.3850,108.3400,108.3550,3075
367,108.3500,108.3700,108.3500,108.3700,1813
368,108.3700,108.4000,108.3600,108.4000,3837
369,108.4100,108.4200,108.4000,108.4200,1110
370,108.4100,108.4300,108.4000,108.4000,23511
371,108.3900,108.4000,108.3900,108.4000,4014
372,108.4029,108.4300,108.3960,108.4200,36175
373,108.4300,108.4600,108.4200,108.4600,4427
374,108.4600,108.4700,108.4400,108.4700,4411
375,108.4700,108.4700,108.4100,108.4100,5973
376,108.4300,108.4300,108.4100,108.4200,5890
377,108.4200,108.4300,108.4000,108.4100,6982
378,108.4190,108.4600,108.4090,108.4600,3466
379,108.4600,108.4700,108.4500,108.4699,3637
380,108.4600,108.5000,108.4600,108.4900,5362
381,108.4800,108.5260,108.4600,108.4700,7180
382,108.4790,108.4900,108.4500,108.4600,5210
383,108.4500,108.4800,108.4100,108.4200,7317
384,108.4100,108.4300,108.4050,108.4200,4634
385,108.4100,108.4400,108.4000,108.4300,5633
386,108.4400,108.4400,108.4000,108.4100,8620
387,108.4150,108.4500,108.4100,108.4500,7664
388,108.4450,108.4500,108.4000,108.4300,9501
389,108.4300,108.4600,108.4300,108.4400,7773
390,108.4400,108.4400,108.3500,108.3700,16784