EOG,EOG Resources,Energy,3,Oil & Gas Exploration & Production,52830434363,2951987
a1493645400,92.53,92.53,92.53,92.53,19926
1,92.57,92.71,92.57,92.67,5400
2,92.47,92.56,92.47,92.53,3935
3,92.56,92.63,92.52,92.61,2000
4,92.58,92.58,92.51,92.53,675
5,92.51,92.59,92.43,92.59,2014
6,92.64,92.64,92.51,92.52,2735
7,92.53,92.61,92.53,92.6,1055
8,92.44,92.5,92.44,92.5,300
9,92.46,92.52,92.43,92.44,3200
10,92.53,92.59,92.45,92.45,4600
11,92.55,92.61,92.5,92.51,9669
12,92.54,92.61,92.53,92.57,2900
13,92.56,92.6,92.54,92.54,2900
14,92.5893,92.6,92.55,92.56,1700
15,92.5,92.58,92.48,92.53,2100
16,92.39,92.56,92.36,92.56,4380
17,92.36,92.4,92.34,92.39,3350
18,92.37,92.42,92.29,92.39,3933
19,92.375,92.38,92.31,92.32,1606
20,92.39,92.43,92.38,92.38,1300
21,92.36,92.41,92.33,92.37,2713
22,92.5,92.51,92.4,92.4,3100
23,92.55,92.58,92.51,92.51,3500
24,92.47,92.58,92.47,92.52,7974
25,92.45,92.46,92.44,92.46,2056
27,92.3855,92.46,92.3855,92.43,3508
28,92.31,92.37,92.3,92.37,3300
29,92.34,92.355,92.33,92.35,864
30,92.21,92.322,92.21,92.322,2963
31,92.25,92.285,92.19,92.2142,3517
32,92.34,92.34,92.24,92.245,6731
33,92.33,92.35,92.29,92.32,3057
34,92.3756,92.3756,92.305,92.32,3800
35,92.32,92.39,92.3,92.38,3706
36,92.3082,92.32,92.2993,92.31,1709
37,92.32,92.37,92.32,92.32,2600
38,92.29,92.32,92.26,92.26,3561
39,92.321,92.33,92.2768,92.29,3050
40,92.37,92.375,92.31,92.32,3325
41,92.25,92.32,92.25,92.32,2300
42,92.18,92.295,92.18,92.27,1700
43,92.16,92.21,92.16,92.18,5900
44,92.07,92.165,92.06,92.16,7079
45,92.035,92.09,92.02,92.06,3700
46,92.015,92.08,92,92.06,2800
47,91.98,92.04,91.94,92.03,4381
48,92,92.01,92,92.01,400
49,92.0058,92.0058,91.95,91.95,1650
50,91.93,91.99,91.88,91.99,2744
51,91.99,92.02,91.9301,91.935,8860
52,91.98,92.02,91.97,91.97,1800
53,91.89,92.02,91.89,92.005,12799
54,91.98,91.98,91.93,91.93,2010
55,91.89,91.965,91.87,91.965,2050
56,91.88,91.9,91.8,91.86,2999
57,91.9308,91.9308,91.87,91.8738,1214
58,91.935,91.95,91.89,91.93,3074
59,91.94,91.95,91.92,91.92,1000
60,91.95,91.96,91.9319,91.9319,1205
61,91.82,91.945,91.82,91.921,1275
62,91.84,91.84,91.8,91.83,4255
63,91.89,91.91,91.84,91.84,1600
64,91.92,91.93,91.89,91.89,27630
65,91.94,91.94,91.9001,91.93,5000
66,91.94,91.96,91.94,91.96,1100
67,91.86,91.96,91.86,91.95,3219
68,91.9,91.9,91.84,91.84,4000
69,91.95,91.975,91.895,91.895,10332
70,91.985,91.985,91.92,91.955,11702
71,91.935,91.99,91.93,91.97,8300
72,91.94,91.94,91.91,91.9103,4014
73,91.94,91.97,91.92,91.93,6800
74,91.93,91.94,91.9275,91.94,2200
75,91.91,91.92,91.89,91.92,5979
76,91.9,91.92,91.86,91.92,9021
77,91.88,91.93,91.88,91.89,2600
78,91.94,91.95,91.8701,91.88,7164
79,91.9301,92,91.9,91.94,12950
80,91.92,91.995,91.9,91.97,13542
81,91.9199,91.9199,91.8701,91.9101,8679
82,91.905,91.905,91.905,91.905,200
83,91.915,91.925,91.9,91.92,1615
84,91.89,91.935,91.89,91.9178,4837
85,91.87,91.88,91.85,91.873,1795
86,91.7901,91.86,91.79,91.86,3704
87,91.7501,91.8,91.75,91.8,3050
88,91.79,91.79,91.77,91.778,1100
89,91.9,91.9,91.8,91.8,3824
90,91.89,91.93,91.89,91.92,5350
91,91.873,91.92,91.86,91.905,6217
92,91.8101,91.863,91.8,91.86,3957
93,91.8801,91.9,91.84,91.84,1500
94,91.9,91.9132,91.9,91.9132,2000
95,91.8901,91.94,91.89,91.906,7843
96,91.89,91.92,91.89,91.92,4700
97,91.87,91.91,91.87,91.91,1200
98,91.82,91.84,91.82,91.84,600
100,91.774,91.8,91.76,91.8,2750
101,91.85,91.85,91.772,91.772,1603
102,91.89,91.93,91.8437,91.8437,3100
103,91.9,91.94,91.89,91.92,3134
104,91.89,91.94,91.89,91.901,1243
105,91.9201,91.93,91.903,91.903,1900
106,91.99,91.99,91.93,91.93,2600
107,92.03,92.03,91.97,91.99,6111
108,91.984,92.02,91.984,92.01,600
109,92.037,92.037,92.01,92.01,1636
110,91.93,92.01,91.93,92.01,2202
111,91.9,91.92,91.9,91.91,2692
112,91.91,91.91,91.9,91.9,1700
113,91.9401,91.99,91.91,91.91,1800
114,92,92,91.975,91.975,900
115,92.02,92.04,92.01,92.01,2108
116,92.11,92.11,92.03,92.06,3600
117,92.04,92.09,92.04,92.08,2799
118,92.1,92.1,92.01,92.03,2550
119,92.1501,92.27,92.1,92.12,12010
120,92.18,92.22,92.18,92.19,1500
121,92.28,92.29,92.2,92.2,3600
122,92.1601,92.29,92.1601,92.25,5661
123,92.17,92.19,92.15,92.16,3600
124,92.01,92.19,92.01,92.14,3861
125,92,92.0599,92,92.0216,2700
126,91.98,92.0429,91.98,92.02,2800
127,91.9701,91.98,91.97,91.98,2400
128,92.0501,92.06,91.98,91.9899,7842
129,92.065,92.11,92.04,92.1,7572
130,92.07,92.07,92.01,92.03,2802
131,92.0301,92.0663,92,92.0663,2100
132,92.02,92.08,92.01,92.06,9442
133,92,92.025,92,92.02,4703
134,92.05,92.06,91.99,91.99,2700
135,92,92.09,92,92.0501,11105
136,92.0668,92.07,92.005,92.005,5700
137,92.06,92.14,92.05,92.05,17340
138,92.12,92.14,92.04,92.06,10705
139,92.07,92.1338,92.07,92.1338,2665
140,92.05,92.1,92.05,92.08,4214
141,92.07,92.1,92.05,92.08,5445
142,92.06,92.08,92.01,92.08,3600
143,92.01,92.05,92.01,92.04,2000
144,91.99,92.01,91.99,92.01,1506
145,91.97,92,91.97,91.99,2200
146,92.006,92.04,91.98,91.98,3762
147,91.99,92.03,91.99,92.03,1000
148,92.01,92.01,91.96,91.966,710
149,92.0401,92.06,91.99,92.01,3400
150,92.02,92.06,92.0101,92.04,2663
151,92,92.04,91.99,92.04,4805
152,91.98,91.99,91.97,91.99,800
153,91.99,91.99,91.96,91.97,2787
154,91.98,91.99,91.98,91.99,300
155,91.98,91.98,91.94,91.97,1000
156,92.024,92.04,91.99,92,3854
157,92.04,92.04,92.0001,92.0016,1300
158,92.0097,92.03,91.9901,92.03,648
159,92.05,92.05,92.0001,92.01,2401
160,92.02,92.05,91.98,92.04,1300
161,91.96,92.01,91.955,92.01,2300
162,92,92.0098,91.9577,91.9577,3488
163,92,92,91.99,92,5710
164,92.01,92.04,91.99,91.995,4799
165,91.9913,92.0068,91.99,92,8490
166,91.99,92,91.97,92,4500
167,91.99,92.02,91.97,91.99,3743
168,92.0497,92.0497,91.992,92.01,3712
169,92.05,92.07,92.01,92.05,10253
170,92.06,92.07,92.03,92.05,3244
171,92.0501,92.06,92,92.04,3441
172,92.06,92.07,92.042,92.06,9435
173,92.14,92.195,92.05,92.06,29269
174,92.08,92.16,92.08,92.1401,13370
175,92.1,92.1,92.06,92.095,6500
176,92.095,92.14,92.07,92.12,10900
177,92.09,92.1075,92.09,92.09,4817
178,92.08,92.11,92.013,92.095,14376
179,92.05,92.13,92.04,92.08,12237
180,92.0912,92.1,92.06,92.06,15594
181,92.145,92.16,92.075,92.09,9200
182,92.06,92.121,92.06,92.12,27150
183,92.07,92.105,92.02,92.08,8683
184,92.06,92.0636,92.03,92.0636,3300
185,92.033,92.06,92.03,92.05,2300
186,92.04,92.07,91.99,92.06,5500
187,91.98,92.08,91.98,92.04,3588
188,91.98,92,91.92,91.96,2325
189,92.03,92.03,91.97,91.97,4600
190,91.98,92.03,91.97,92.03,3679
191,92.01,92.01,91.96,91.9829,1575
192,92.05,92.05,92.02,92.02,700
193,92.05,92.08,92.0303,92.0303,18486
194,92.02,92.06,92.02,92.05,5642
195,92.04,92.07,92.03,92.05,4666
196,92.07,92.07,92.03,92.03,7000
197,92.03,92.0887,92.03,92.07,5541
198,92.01,92.02,91.98,92.02,1900
199,92.09,92.09,92.025,92.025,15505
200,92.095,92.12,92.08,92.11,3280
201,92.07,92.11,92.06,92.1,23337
202,92.005,92.04,91.93,92.03,6450
203,92.06,92.06,92.02,92.03,9310
204,92.08,92.15,92.065,92.065,7037
205,92.0399,92.09,92.03,92.07,2757
206,92.1,92.11,92.0083,92.02,6094
207,92.1,92.11,92.06,92.1,5066
208,92.1,92.11,92.09,92.11,500
209,92.07,92.105,92.005,92.105,12573
210,92.07,92.09,92.065,92.07,4165
211,92.06,92.0763,92.03,92.0763,7666
212,92.03,92.055,92.03,92.055,8186
213,92.02,92.05,92.01,92.01,3311
214,91.9901,92.07,91.9901,92.03,3750
215,92,92.02,91.99,92.02,1000
216,92.05,92.05,92.05,92.05,200
217,92.05,92.06,92.04,92.05,5275
218,92.05,92.06,92.04,92.05,1100
219,92.04,92.05,92.03,92.04,2314
220,92.025,92.04,92.02,92.04,993
221,92.07,92.07,92.04,92.04,1400
222,92.02,92.07,92.02,92.07,2600
223,92.05,92.07,92.03,92.05,4081
224,92.04,92.07,92.03,92.06,5028
225,92.08,92.08,92.0363,92.0363,12140
226,92.105,92.14,92.08,92.08,14357
227,92.14,92.16,92.08,92.09,5879
228,92.115,92.13,92.1,92.13,1984
229,92.11,92.12,92.1,92.12,1600
230,92.095,92.12,92.07,92.12,5267
231,92.1,92.13,92.1,92.11,1500
232,92.085,92.12,92.074,92.1,6113
233,92.09,92.11,92.09,92.11,2086
234,92.0966,92.1014,92.08,92.08,2103
235,92.075,92.09,92.05,92.09,1618
236,92.05,92.1,92.05,92.0849,4194
237,92.1,92.1,92.0431,92.0431,20857
238,92.095,92.1,92.08,92.0962,13144
239,92.11,92.13,92.095,92.1,5082
240,92.01,92.11,91.95,92.11,36541
241,91.97,92.03,91.97,92.02,4458
242,92.03,92.03,91.96,91.97,3302
243,92.03,92.04,92.0126,92.015,5795
244,92.06,92.08,92.03,92.04,7877
245,92.1,92.11,92.07,92.07,7269
246,92.11,92.14,92.11,92.12,1300
247,92.14,92.15,92.11,92.1162,2104
248,92.105,92.16,92.1,92.14,5100
249,92.07,92.11,92.07,92.105,3266
250,92.12,92.12,92.063,92.0795,3595
251,92.11,92.13,92.11,92.11,848
252,92.103,92.13,92.103,92.103,1817
253,92.09,92.1,92.07,92.1,3438
254,92.08,92.09,92.08,92.09,500
255,92.09,92.09,92.0693,92.09,3123
256,92.0924,92.1099,92.08,92.08,2706
257,92.07,92.1,92.07,92.1,929
258,92.06,92.095,92.06,92.08,2440
259,92.07,92.07,92.05,92.06,1686
260,92.145,92.16,92.08,92.08,1400
261,92.13,92.15,92.13,92.13,1400
262,92.1448,92.16,92.125,92.13,9149
263,92.115,92.15,92.1,92.145,7566
264,92.16,92.16,92.115,92.115,1959
265,92.17,92.18,92.15,92.15,4320
266,92.17,92.18,92.16,92.17,3820
267,92.18,92.18,92.165,92.17,2800
268,92.12,92.17,92.12,92.17,1340
269,92.09,92.13,92.09,92.12,2525
270,92.14,92.15,92.103,92.11,4161
271,92.23,92.23,92.15,92.17,9018
272,92.29,92.33,92.2281,92.232,6918
273,92.3,92.32,92.27,92.27,3167
274,92.32,92.345,92.29,92.32,3839
275,92.3,92.33,92.29,92.29,2000
276,92.24,92.3,92.24,92.3,3200
277,92.2475,92.26,92.24,92.26,2300
278,92.25,92.27,92.23,92.26,5700
279,92.255,92.2799,92.235,92.25,7642
280,92.23,92.25,92.21,92.25,3230
281,92.25,92.2687,92.24,92.265,2100
282,92.245,92.28,92.24,92.26,9377
283,92.27,92.31,92.245,92.25,12722
284,92.27,92.34,92.25,92.29,11500
285,92.26,92.31,92.24,92.29,7813
286,92.25,92.26,92.24,92.255,2951
287,92.25,92.255,92.225,92.24,9815
288,92.23,92.245,92.23,92.24,3000
289,92.2282,92.2282,92.19,92.21,7328
290,92.22,92.23,92.2,92.2,3104
291,92.25,92.26,92.215,92.23,9202
292,92.25,92.26,92.245,92.25,2800
293,92.21,92.26,92.19,92.26,2089
294,92.21,92.225,92.21,92.213,726
295,92.21,92.225,92.19,92.21,3416
296,92.2,92.22,92.19,92.22,900
297,92.17,92.195,92.17,92.19,1650
298,92.14,92.18,92.13,92.17,6716
299,92.17,92.18,92.13,92.14,9055
300,92.17,92.19,92.17,92.19,2364
301,92.15,92.16,92.15,92.16,1000
302,92.13,92.17,92.13,92.155,3264
303,92.12,92.13,92.12,92.13,2100
304,92.11,92.14,92.1,92.1236,3878
305,92.12,92.13,92.1,92.1,1900
306,92.1,92.11,92.09,92.11,2420
307,92.128,92.128,92.1,92.11,3900
308,92.1,92.12,92.08,92.11,1503
309,92.16,92.17,92.09,92.09,2602
310,92.09,92.16,92.09,92.15,3866
311,92.15,92.15,92.12,92.12,1862
312,92.19,92.21,92.16,92.16,5650
313,92.18,92.18,92.18,92.18,300
314,92.178,92.18,92.17,92.18,1600
315,92.13,92.16,92.13,92.16,2922
316,92.09,92.13,92.08,92.1201,4222
317,92.05,92.1,92.05,92.09,1800
318,92.05,92.05,92.03,92.03,1712
319,91.99,92.03,91.99,92.03,900
320,92.02,92.03,91.99,91.99,3724
321,92.04,92.07,92.025,92.03,2142
322,92.05,92.06,92.0425,92.0425,2326
323,92.08,92.08,92.06,92.06,4068
324,92.04,92.0746,92.04,92.07,1100
325,92.03,92.06,92.03,92.06,1924
326,92.02,92.03,91.98,92.02,4903
327,91.98,92.04,91.98,92.02,5831
328,92,92,91.99,91.99,900
329,92.0201,92.04,91.99,92.01,9892
330,92.09,92.09,92.04,92.05,5273
331,92.0775,92.09,92.07,92.09,2296
332,92.16,92.16,92.07,92.071,5474
333,92.2,92.21,92.17,92.17,5193
334,92.2,92.2003,92.19,92.2003,1351
335,92.22,92.22,92.19,92.2,2862
336,92.21,92.22,92.1753,92.21,16161
337,92.185,92.21,92.18,92.21,2950
338,92.2,92.21,92.16,92.19,7329
339,92.21,92.21,92.19,92.19,4365
340,92.1878,92.205,92.18,92.205,1637
341,92.175,92.19,92.15,92.19,4161
342,92.13,92.17,92.13,92.17,934
343,92.14,92.14,92.1,92.13,2865
344,92.14,92.14,92.085,92.11,4165
345,92.12,92.17,92.11,92.15,10946
346,92.14,92.15,92.112,92.112,11834
347,92.09,92.14,92.09,92.12,7270
348,92.06,92.08,92.05,92.08,2836
349,92.08,92.11,92.065,92.07,6278
350,92.095,92.1,92.08,92.082,2136
351,92.1,92.12,92.08,92.09,16650
352,92.0992,92.11,92.08,92.1,8634
353,92.1,92.1,92.08,92.08,4398
354,92.09,92.12,92.09,92.09,8811
355,92.07,92.095,92.06,92.09,2729
356,91.99,92.065,91.99,92.065,5829
357,91.99,91.995,91.96,91.99,6766
358,92.03,92.04,91.9815,91.99,6490
359,92.07,92.07,92.0372,92.0372,6606
360,92.05,92.07,92.05,92.06,3000
361,92.11,92.11,92.0375,92.0695,15977
362,92.0758,92.1,92.075,92.1,3078
363,92.02,92.08,92.01,92.08,4031
364,92.01,92.01,91.995,92.01,6525
365,92.07,92.09,92.02,92.02,6192
366,92.085,92.1,92.085,92.09,6104
367,92.091,92.105,92.075,92.09,11455
368,92.03,92.1,92.03,92.1,7635
369,92.02,92.03,91.995,92.02,5000
370,92.08,92.08,92.02,92.02,5456
371,92.1,92.105,92.055,92.065,8790
372,92.1,92.105,92.085,92.1,10754
373,92.085,92.1,92.08,92.1,2000
374,92.0601,92.09,92.06,92.085,5069
375,92.06,92.08,92.05,92.06,12501
376,92.03,92.08,92.03,92.06,7949
377,92.06,92.06,92.03,92.03,6670
378,92.1,92.11,92.04,92.06,10691
379,92.095,92.105,92.09,92.1,11200
380,92.095,92.1,92.09,92.095,8128
381,92.07,92.1,92.06,92.095,22449
382,92.045,92.08,92.045,92.075,8281
383,92.03,92.06,92.03,92.05,11354
384,92.04,92.042,92.02,92.03,11183
385,92.01,92.05,92.005,92.04,14067
386,92.01,92.02,91.97,92.005,19582
387,92.08,92.1,92.005,92.005,25946
388,92.09,92.1,92.07,92.08,40208
389,92.09,92.11,92.08,92.095,47511
390,92.04,92.11,92.01,92.09,92977
