PPG,PPG Industries,Materials,8,Specialty Chemicals,27677928067,1533595
a1493645400,109.68,109.68,109.67,109.67,1128
1,109.47,109.74,109.11,109.5,35716
2,109.6201,109.6201,109.6201,109.6201,109
3,109.435,109.435,109.32,109.4093,838
4,109.5,109.53,109.32,109.53,700
6,109.5,109.52,109.43,109.49,4543
7,109.5,109.54,109.4,109.5,4102
8,109.49,109.56,109.49,109.56,2655
9,109.5,109.525,109.47,109.515,1600
10,109.4701,109.51,109.45,109.47,1300
11,109.47,109.56,109.45,109.5,4204
12,109.5,109.51,109.43,109.48,1838
13,109.59,109.59,109.59,109.59,300
14,109.69,109.69,109.65,109.65,400
15,109.75,109.75,109.67,109.67,1200
16,109.855,109.86,109.74,109.74,1412
17,109.82,109.86,109.82,109.86,510
18,109.82,109.82,109.78,109.82,400
19,109.72,109.77,109.67,109.77,3000
20,109.72,109.73,109.72,109.73,400
21,109.64,109.7,109.64,109.7,300
22,109.7,109.7,109.7,109.7,100
23,109.73,109.73,109.67,109.68,500
24,109.64,109.64,109.64,109.64,100
25,109.71,109.71,109.71,109.71,100
26,109.67,109.69,109.64,109.6753,1000
27,109.66,109.66,109.66,109.66,100
28,109.67,109.67,109.67,109.67,600
29,109.71,109.71,109.65,109.7,992
30,109.735,109.735,109.7,109.7,700
31,109.66,109.71,109.65,109.71,2100
32,109.69,109.7,109.66,109.67,641
33,109.65,109.67,109.65,109.66,602
34,109.71,109.71,109.655,109.66,2577
35,109.7,109.73,109.64,109.73,1483
36,109.68,109.68,109.65,109.68,2200
37,109.65,109.71,109.65,109.7,1100
38,109.64,109.65,109.64,109.65,500
39,109.58,109.63,109.58,109.63,1200
40,109.58,109.58,109.57,109.57,1379
41,109.61,109.61,109.53,109.56,5051
42,109.6,109.61,109.59,109.61,1204
43,109.56,109.5675,109.56,109.56,616
44,109.56,109.6,109.56,109.6,300
45,109.575,109.575,109.575,109.575,300
46,109.56,109.59,109.56,109.571,800
47,109.45,109.55,109.45,109.55,1348
48,109.5,109.5,109.47,109.47,900
49,109.545,109.545,109.51,109.51,400
50,109.57,109.57,109.57,109.57,100
51,109.59,109.605,109.565,109.565,300
52,109.56,109.6,109.52,109.6,2375
53,109.53,109.57,109.52,109.57,1200
54,109.49,109.535,109.48,109.535,2308
55,109.47,109.49,109.47,109.48,600
56,109.43,109.48,109.43,109.48,509
57,109.47,109.47,109.44,109.46,1016
58,109.52,109.52,109.48,109.48,700
59,109.49,109.49,109.49,109.49,100
60,109.49,109.52,109.49,109.52,1600
61,109.48,109.5,109.48,109.5,200
62,109.58,109.58,109.51,109.52,1100
63,109.575,109.59,109.575,109.59,400
64,109.605,109.62,109.59,109.59,700
65,109.59,109.6,109.55,109.6,1700
66,109.6,109.6,109.55,109.56,900
67,109.615,109.62,109.59,109.62,1000
68,109.58,109.61,109.55,109.59,1013
69,109.61,109.61,109.55,109.6,600
70,109.59,109.64,109.58,109.61,2700
72,109.62,109.62,109.62,109.62,200
73,109.59,109.61,109.59,109.61,300
74,109.61,109.61,109.61,109.61,100
75,109.67,109.67,109.62,109.62,1316
76,109.6899,109.6899,109.64,109.67,1173
77,109.71,109.72,109.69,109.69,1500
78,109.75,109.77,109.73,109.73,2900
79,109.79,109.79,109.76,109.76,1200
80,109.8,109.82,109.8,109.8,1200
81,109.76,109.79,109.76,109.79,900
82,109.78,109.78,109.7601,109.7601,600
83,109.73,109.78,109.73,109.78,1000
84,109.76,109.78,109.73,109.73,2561
85,109.77,109.78,109.76,109.76,1500
86,109.76,109.79,109.76,109.79,500
87,109.7084,109.74,109.69,109.73,700
88,109.74,109.75,109.69,109.69,1100
89,109.8,109.8,109.74,109.75,1800
90,109.77,109.8,109.76,109.77,2000
91,109.79,109.79,109.76,109.775,700
92,109.77,109.79,109.77,109.78,800
93,109.8,109.8,109.765,109.765,1200
94,109.79,109.79,109.7701,109.7701,703
95,109.79,109.82,109.78,109.79,2300
96,109.79,109.79,109.79,109.79,600
97,109.775,109.78,109.77,109.78,700
98,109.8,109.8,109.77,109.77,2400
99,109.81,109.81,109.81,109.81,100
100,109.81,109.81,109.8,109.8,700
101,109.76,109.8,109.76,109.79,2073
102,109.81,109.81,109.79,109.79,1910
103,109.8,109.81,109.8,109.81,600
104,109.78,109.8,109.78,109.8,2300
105,109.775,109.81,109.77,109.81,2250
106,109.79,109.81,109.78,109.79,1100
107,109.8,109.8,109.79,109.79,600
108,109.75,109.8,109.75,109.8,1508
109,109.78,109.78,109.75,109.75,1011
110,109.77,109.77,109.75,109.75,600
111,109.74,109.77,109.74,109.77,400
112,109.785,109.785,109.75,109.76,1400
113,109.78,109.78,109.78,109.78,300
114,109.77,109.78,109.77,109.78,300
115,109.79,109.79,109.7795,109.78,600
116,109.79,109.825,109.76,109.8,3100
117,109.76,109.76,109.76,109.76,500
118,109.74,109.76,109.74,109.76,900
119,109.77,109.77,109.73,109.73,700
120,109.77,109.77,109.72,109.77,1500
121,109.73,109.77,109.73,109.77,300
122,109.74,109.76,109.74,109.74,800
123,109.71,109.76,109.7,109.76,1802
124,109.76,109.76,109.76,109.76,200
126,109.78,109.79,109.77,109.78,800
127,109.8,109.8,109.79,109.79,1106
128,109.8,109.8,109.78,109.78,400
129,109.79,109.88,109.7874,109.8,4450
130,109.85,109.85,109.79,109.795,3500
131,109.8,109.84,109.79,109.82,2400
132,109.8,109.83,109.8,109.8,800
133,109.82,109.84,109.82,109.84,200
134,109.82,109.85,109.81,109.85,1500
135,109.85,109.85,109.81,109.82,400
136,109.88,109.88,109.84,109.84,1009
137,109.84,109.89,109.83,109.84,5938
138,109.87,109.87,109.84,109.87,300
140,109.84,109.85,109.82,109.84,1182
141,109.86,109.87,109.86,109.87,200
142,109.9,109.93,109.87,109.87,800
143,109.895,109.895,109.8902,109.8902,207
144,109.91,109.91,109.91,109.91,100
145,109.915,109.915,109.9,109.9,200
146,109.89,109.89,109.89,109.89,500
147,109.95,109.95,109.9,109.9,3300
148,109.93,109.93,109.93,109.93,100
149,109.91,109.92,109.9,109.91,1001
151,109.93,109.93,109.93,109.93,100
152,109.9071,109.92,109.9,109.92,818
153,109.92,109.94,109.91,109.93,3524
154,109.9,109.9,109.89,109.89,200
155,109.89,109.89,109.88,109.88,400
156,109.85,109.85,109.85,109.85,100
157,109.93,109.93,109.84,109.84,1431
158,109.92,109.92,109.92,109.92,100
159,109.92,109.92,109.92,109.92,100
160,109.91,109.93,109.9,109.9,2300
161,109.92,109.93,109.89,109.93,1600
162,109.905,109.92,109.9,109.92,1005
163,109.92,109.92,109.9,109.9,1700
164,109.93,109.93,109.93,109.93,400
165,109.91,109.92,109.9,109.92,1600
166,109.87,109.89,109.87,109.89,700
167,109.85,109.86,109.85,109.86,300
168,109.83,109.83,109.83,109.83,200
169,109.89,109.89,109.85,109.85,1350
170,109.86,109.8995,109.86,109.8995,325
172,109.82,109.87,109.82,109.865,900
173,109.78,109.82,109.78,109.82,1800
174,109.81,109.82,109.8,109.8,2600
175,109.84,109.84,109.81,109.81,617
176,109.81,109.82,109.81,109.82,313
177,109.78,109.78,109.78,109.78,100
178,109.79,109.79,109.78,109.78,200
179,109.82,109.82,109.79,109.79,400
180,109.84,109.86,109.82,109.83,2000
181,109.8629,109.87,109.8629,109.87,308
182,109.86,109.88,109.86,109.88,600
183,109.84,109.87,109.834,109.834,4634
184,109.84,109.8549,109.84,109.8549,532
185,109.86,109.86,109.86,109.86,300
186,109.83,109.83,109.83,109.83,100
187,109.85,109.86,109.83,109.83,800
188,109.83,109.86,109.83,109.85,1400
189,109.83,109.83,109.83,109.83,200
190,109.86,109.87,109.86,109.863,1263
191,109.88,109.88,109.85,109.85,234
192,109.85,109.865,109.85,109.865,700
193,109.85,109.87,109.85,109.87,600
194,109.84,109.84,109.84,109.84,100
195,109.8529,109.8529,109.8529,109.8529,191
196,109.89,109.89,109.87,109.87,1702
197,109.84,109.89,109.84,109.89,1100
198,109.83,109.83,109.83,109.83,300
199,109.83,109.833,109.8,109.83,1500
200,109.82,109.82,109.82,109.82,100
201,109.79,109.81,109.79,109.81,600
202,109.7,109.77,109.65,109.77,8157
203,109.72,109.75,109.72,109.72,400
204,109.81,109.82,109.79,109.79,900
205,109.83,109.83,109.795,109.795,300
206,109.79,109.8,109.79,109.8,1562
207,109.8,109.8,109.7985,109.7985,325
208,109.8,109.82,109.8,109.82,900
209,109.76,109.79,109.75,109.79,900
210,109.77,109.77,109.77,109.77,100
211,109.78,109.78,109.745,109.745,210
212,109.7909,109.795,109.75,109.795,1100
213,109.85,109.85,109.78,109.78,2100
214,109.8497,109.8497,109.8497,109.8497,200
215,109.81,109.82,109.81,109.82,500
216,109.81,109.81,109.81,109.81,100
217,109.825,109.83,109.82,109.82,300
218,109.835,109.835,109.83,109.83,200
219,109.86,109.86,109.84,109.84,494
220,109.8,109.845,109.8,109.844,1000
221,109.78,109.78,109.76,109.78,700
222,109.8,109.8,109.78,109.8,700
223,109.8,109.8,109.8,109.8,100
224,109.78,109.81,109.78,109.81,400
225,109.79,109.7926,109.79,109.7926,1038
226,109.83,109.83,109.83,109.83,400
227,109.85,109.88,109.83,109.83,1360
228,109.88,109.88,109.83,109.84,1400
229,109.82,109.82,109.82,109.82,100
230,109.81,109.835,109.81,109.83,509
231,109.835,109.84,109.825,109.825,500
232,109.8236,109.84,109.81,109.82,2872
234,109.87,109.87,109.85,109.85,402
235,109.84,109.84,109.84,109.84,100
236,109.82,109.84,109.79,109.84,2027
237,109.82,109.87,109.82,109.85,1045
238,109.86,109.86,109.86,109.86,100
239,109.85,109.85,109.85,109.85,100
241,109.86,109.86,109.86,109.86,100
242,109.85,109.85,109.845,109.845,200
243,109.845,109.845,109.84,109.84,300
244,109.83,109.83,109.83,109.83,100
246,109.81,109.8289,109.8084,109.8289,343
247,109.82,109.82,109.805,109.805,200
249,109.81,109.815,109.8,109.8,1604
250,109.78,109.82,109.78,109.82,1419
251,109.8,109.8,109.79,109.79,200
252,109.8,109.83,109.77,109.77,1200
253,109.82,109.82,109.82,109.82,100
254,109.82,109.84,109.82,109.84,200
255,109.84,109.84,109.84,109.84,100
256,109.82,109.85,109.82,109.85,1900
257,109.81,109.82,109.81,109.82,500
258,109.8,109.81,109.79,109.79,3918
259,109.81,109.81,109.81,109.81,100
260,109.77,109.77,109.77,109.77,100
261,109.79,109.79,109.79,109.79,100
262,109.82,109.82,109.81,109.81,400
263,109.82,109.83,109.8,109.8,3121
264,109.82,109.82,109.81,109.81,200
265,109.82,109.82,109.82,109.82,100
266,109.81,109.815,109.8,109.81,900
267,109.78,109.815,109.78,109.815,600
268,109.775,109.78,109.765,109.78,1364
269,109.79,109.79,109.78,109.78,620
270,109.81,109.83,109.79,109.8,2490
271,109.85,109.86,109.83,109.83,900
272,109.85,109.88,109.84,109.87,4594
273,109.82,109.85,109.82,109.85,598
274,109.82,109.85,109.82,109.85,950
275,109.81,109.82,109.8,109.81,1894
276,109.825,109.83,109.825,109.83,200
277,109.82,109.82,109.805,109.805,400
278,109.82,109.82,109.8,109.81,600
279,109.8,109.82,109.8,109.8,3100
280,109.83,109.83,109.83,109.83,100
281,109.83,109.83,109.815,109.83,400
282,109.81,109.83,109.8,109.83,1400
283,109.85,109.87,109.8,109.81,3408
284,109.83,109.84,109.83,109.84,400
285,109.85,109.8965,109.85,109.88,600
286,109.87,109.87,109.87,109.87,100
287,109.87,109.885,109.87,109.87,1596
288,109.87,109.885,109.87,109.885,200
289,109.85,109.86,109.85,109.86,200
290,109.82,109.8384,109.82,109.8384,204
291,109.85,109.85,109.85,109.85,100
292,109.86,109.86,109.86,109.86,100
293,109.81,109.85,109.81,109.85,1000
294,109.8,109.8,109.8,109.8,100
295,109.7701,109.82,109.7701,109.82,302
296,109.77,109.8,109.77,109.8,638
298,109.75,109.77,109.75,109.77,300
299,109.748,109.748,109.748,109.748,300
300,109.74,109.74,109.74,109.74,200
301,109.75,109.75,109.74,109.75,400
302,109.78,109.796,109.77,109.77,504
303,109.77,109.8,109.77,109.79,1400
304,109.73,109.76,109.72,109.76,909
305,109.74,109.74,109.73,109.73,200
306,109.78,109.78,109.76,109.76,200
307,109.78,109.791,109.76,109.791,428
308,109.816,109.816,109.81,109.81,200
309,109.81,109.81,109.81,109.81,200
310,109.78,109.79,109.78,109.79,400
311,109.7401,109.78,109.7401,109.78,2766
312,109.76,109.77,109.75,109.77,1446
313,109.78,109.78,109.77,109.77,400
314,109.79,109.79,109.77,109.77,599
315,109.68,109.77,109.68,109.77,4501
316,109.712,109.72,109.7,109.71,574
317,109.71,109.73,109.71,109.72,800
318,109.71,109.71,109.68,109.7017,2551
319,109.71,109.71,109.71,109.71,200
320,109.7046,109.7046,109.7,109.7,496
321,109.71,109.71,109.7099,109.71,400
322,109.71,109.73,109.71,109.71,500
323,109.71,109.71,109.71,109.71,100
324,109.715,109.72,109.71,109.72,500
325,109.715,109.715,109.715,109.715,100
326,109.69,109.73,109.69,109.73,1903
327,109.67,109.73,109.67,109.715,1545
328,109.68,109.68,109.67,109.67,512
330,109.69,109.69,109.67,109.68,800
331,109.69,109.69,109.67,109.68,600
332,109.7,109.71,109.69,109.71,4410
333,109.7,109.725,109.7,109.71,1100
334,109.69,109.69,109.69,109.69,100
335,109.71,109.72,109.7,109.71,600
336,109.71,109.72,109.7,109.72,900
337,109.69,109.71,109.69,109.71,700
338,109.7,109.73,109.69,109.7,4630
339,109.71,109.715,109.71,109.715,300
340,109.7,109.725,109.69,109.71,2044
341,109.7,109.71,109.7,109.7,2800
342,109.68,109.71,109.68,109.7,1588
343,109.71,109.71,109.69,109.69,3100
344,109.69,109.73,109.69,109.73,3100
345,109.71,109.71,109.68,109.7,1500
346,109.7,109.7086,109.7,109.7,376
347,109.68,109.7,109.68,109.7,1251
348,109.67,109.6709,109.67,109.6709,200
349,109.685,109.69,109.67,109.67,910
350,109.7,109.7,109.69,109.69,2461
351,109.69,109.69,109.67,109.69,2665
352,109.67,109.67,109.67,109.67,900
353,109.7,109.72,109.69,109.69,4325
354,109.7,109.72,109.7,109.72,900
355,109.69,109.69,109.68,109.68,700
356,109.65,109.69,109.65,109.69,1292
357,109.65,109.66,109.64,109.64,2082
358,109.64,109.64,109.64,109.64,437
359,109.64,109.64,109.62,109.63,790
360,109.65,109.65,109.64,109.64,200
361,109.69,109.69,109.65,109.65,2910
362,109.69,109.69,109.68,109.68,600
363,109.69,109.69,109.69,109.69,600
364,109.68,109.7,109.67,109.69,2070
365,109.67,109.7,109.67,109.68,3412
366,109.69,109.69,109.68,109.68,1134
367,109.68,109.69,109.68,109.69,1100
368,109.68,109.69,109.67,109.68,2884
369,109.65,109.69,109.65,109.69,2246
370,109.615,109.64,109.61,109.64,1800
371,109.62,109.63,109.615,109.615,2150
372,109.63,109.63,109.61,109.61,1850
373,109.64,109.64,109.63,109.63,873
374,109.62,109.64,109.61,109.625,2537
375,109.64,109.64,109.62,109.63,1853
376,109.65,109.65,109.64,109.64,2555
377,109.67,109.67,109.65,109.66,2202
378,109.67,109.675,109.67,109.675,700
379,109.66,109.678,109.66,109.678,1550
380,109.665,109.665,109.66,109.66,1913
381,109.65,109.66,109.64,109.655,6060
382,109.66,109.66,109.645,109.65,1310
383,109.63,109.66,109.63,109.66,3419
384,109.66,109.66,109.64,109.64,2276
385,109.655,109.665,109.65,109.66,1500
386,109.64,109.655,109.64,109.65,5729
387,109.62,109.635,109.61,109.635,5443
388,109.575,109.63,109.575,109.63,5743
389,109.56,109.57,109.55,109.57,3308
390,109.48,109.56,109.46,109.55,29013
