EOG,EOG Resources,Energy,3,Oil & Gas Exploration & Production,52974517823,3403156
a1492695000,93.78,93.78,93.77,93.77,24278
1,93.6,93.91,93.6,93.78,4278
2,93.45,93.67,93.45,93.54,5396
3,93.36,93.51,93.36,93.49,2200
4,93.365,93.499,93.365,93.4,4543
5,93.42,93.48,93.39,93.43,5000
6,93.57,93.6,93.49,93.49,7997
7,93.58,93.59,93.5001,93.56,2600
8,93.64,93.71,93.555,93.58,3100
9,93.75,93.81,93.62,93.64,9375
10,93.68,93.7899,93.65,93.72,7432
11,93.7,93.71,93.64,93.67,27409
12,93.68,93.78,93.68,93.69,2650
13,93.68,93.74,93.66,93.72,5934
14,93.7797,93.7797,93.66,93.68,4321
15,93.75,93.77,93.714,93.74,3261
16,93.74,93.81,93.68,93.7401,8008
17,93.72,93.75,93.69,93.72,3605
18,93.62,93.81,93.62,93.725,37078
19,93.6,93.64,93.53,93.61,11100
20,93.58,93.6,93.52,93.56,9667
21,93.53,93.58,93.52,93.55,8660
22,93.618,93.618,93.54,93.57,4936
23,93.66,93.74,93.65,93.65,1900
24,93.72,93.75,93.68,93.68,2923
25,93.66,93.7363,93.65,93.7363,12480
26,93.765,93.82,93.645,93.656,7460
27,93.68,93.77,93.68,93.73,2950
28,93.65,93.66,93.61,93.63,1700
29,93.53,93.61,93.53,93.61,1100
30,93.625,93.63,93.55,93.589,5132
31,93.75,93.8,93.62,93.62,8330
32,93.7,93.8,93.68,93.78,6717
33,93.63,93.68,93.63,93.67,1639
34,93.61,93.67,93.57,93.67,5942
35,93.56,93.62,93.56,93.595,12034
36,93.65,93.71,93.51,93.5648,9222
37,93.71,93.73,93.61,93.65,3471
38,93.76,93.79,93.67,93.73,4659
39,93.77,93.802,93.69,93.78,5860
40,93.98,93.98,93.76,93.76,16781
41,93.944,94.02,93.89,94,12259
42,94.09,94.09,93.96,93.96,8122
43,94,94.1,94,94.07,9685
44,94.05,94.065,93.945,94.01,14068
45,93.91,94.0179,93.89,94.01,3612
46,93.92,93.97,93.89,93.89,3339
47,93.84,93.89,93.82,93.89,1300
48,93.82,93.92,93.8,93.8174,3850
49,93.69,93.8,93.69,93.8,2800
50,93.66,93.77,93.66,93.67,11275
51,93.63,93.67,93.63,93.66,2805
52,93.67,93.67,93.64,93.67,4552
53,93.6701,93.685,93.61,93.65,28094
54,93.75,93.82,93.64,93.68,22443
55,93.71,93.74,93.64,93.74,6807
56,93.62,93.72,93.62,93.71,3552
57,93.58,93.62,93.56,93.62,4472
58,93.5,93.6,93.5,93.57,13660
59,93.56,93.6,93.49,93.53,2200
60,93.52,93.59,93.52,93.56,1980
61,93.63,93.63,93.47,93.5,8852
62,93.65,93.69,93.615,93.615,3379
63,93.55,93.68,93.55,93.68,3300
64,93.515,93.55,93.49,93.54,16413
65,93.42,93.5227,93.42,93.5,22882
66,93.395,93.46,93.37,93.41,8296
67,93.44,93.44,93.33,93.37,4714
68,93.435,93.459,93.41,93.44,5980
69,93.52,93.56,93.43,93.46,16174
70,93.46,93.49,93.45,93.48,6365
71,93.37,93.46,93.37,93.46,7870
72,93.38,93.485,93.38,93.39,19400
73,93.395,93.42,93.37,93.39,5918
74,93.38,93.44,93.3623,93.42,4101
75,93.355,93.39,93.34,93.39,11719
76,93.33,93.38,93.32,93.35,9534
77,93.36,93.38,93.3,93.32,9219
78,93.39,93.39,93.3,93.35,5130
79,93.42,93.43,93.38,93.4,1900
80,93.35,93.45,93.34,93.43,5188
81,93.35,93.3602,93.33,93.3602,4240
82,93.39,93.39,93.34,93.36,5600
83,93.43,93.49,93.36,93.36,15654
84,93.385,93.4699,93.38,93.45,7640
85,93.365,93.4,93.35,93.37,7327
86,93.37,93.39,93.31,93.34,9782
87,93.4,93.455,93.38,93.39,8710
88,93.42,93.46,93.38,93.39,10685
89,93.46,93.47,93.42,93.422,6310
90,93.5,93.51,93.46,93.47,10517
91,93.4,93.54,93.4,93.52,10135
92,93.41,93.45,93.39,93.41,4000
93,93.44,93.46,93.4,93.4,5820
94,93.42,93.46,93.4,93.44,5170
95,93.35,93.42,93.31,93.42,8648
96,93.35,93.37,93.26,93.31,16459
97,93.295,93.35,93.29,93.35,2900
98,93.25,93.29,93.22,93.29,7900
99,93.26,93.265,93.21,93.24,7200
100,93.365,93.365,93.26,93.26,2900
101,93.365,93.39,93.36,93.38,7700
102,93.37,93.41,93.3499,93.3499,5872
103,93.28,93.36,93.28,93.36,1313
104,93.25,93.39,93.25,93.3,6110
105,93.26,93.3,93.24,93.245,2599
106,93.2,93.32,93.2,93.28,6500
107,93.21,93.24,93.19,93.1955,2448
108,93.285,93.3,93.19,93.19,3835
109,93.29,93.34,93.26,93.285,5335
110,93.29,93.29,93.25,93.29,4859
111,93.38,93.38,93.31,93.31,2952
112,93.31,93.36,93.31,93.35,2643
113,93.3,93.37,93.27,93.3,5400
114,93.39,93.41,93.33,93.33,6133
115,93.45,93.47,93.39,93.39,3175
116,93.53,93.56,93.48,93.48,4300
117,93.58,93.58,93.47,93.53,3069
118,93.61,93.62,93.57,93.57,2480
119,93.64,93.64,93.58,93.6,2121
120,93.67,93.69,93.6402,93.6402,3159
121,93.67,93.7,93.62,93.68,10437
122,93.6661,93.7,93.64,93.69,3400
123,93.68,93.7,93.6305,93.6515,4995
124,93.66,93.7,93.64,93.68,5597
125,93.66,93.7,93.64,93.68,5534
126,93.76,93.76,93.67,93.68,3717
127,93.84,93.86,93.78,93.78,7807
128,93.8,93.81,93.79,93.81,1050
129,93.75,93.85,93.74,93.77,19663
130,93.65,93.745,93.65,93.72,1909
131,93.64,93.64,93.58,93.64,2500
132,93.52,93.63,93.49,93.62,9857
133,93.46,93.5,93.46,93.5,1861
134,93.52,93.56,93.48,93.49,4105
135,93.47,93.52,93.47,93.52,2602
136,93.5,93.5,93.46,93.47,1771
137,93.56,93.56,93.51,93.51,3546
138,93.641,93.66,93.6,93.61,2700
139,93.65,93.66,93.63,93.66,2470
140,93.7117,93.76,93.66,93.66,4670
141,93.67,93.7,93.66,93.7,1303
142,93.73,93.73,93.62,93.65,4970
143,93.765,93.79,93.73,93.73,4599
144,93.82,93.87,93.8,93.8,3510
145,93.8,93.8,93.8,93.8,100
146,93.78,93.8,93.74,93.8,4414
147,93.88,93.88,93.8,93.8,1761
148,93.88,93.88,93.84,93.87,2519
149,93.85,93.89,93.85,93.85,4600
150,93.83,93.84,93.78,93.84,4384
151,93.84,93.89,93.82,93.86,1708
152,93.9,93.9301,93.85,93.85,6002
153,93.94,93.94,93.9,93.93,4166
154,93.94,93.95,93.9,93.94,2645
155,93.925,93.975,93.92,93.945,3805
156,93.86,93.9,93.85,93.89,5568
157,93.8,93.85,93.77,93.85,2907
158,93.8198,93.85,93.81,93.81,2025
159,93.8183,93.83,93.79,93.83,2458
160,93.86,93.92,93.82,93.82,3000
161,93.87,93.9,93.84,93.9,2545
162,93.86,93.89,93.84,93.86,3983
163,93.93,93.93,93.84,93.85,2313
164,93.91,93.91,93.85,93.91,2400
165,93.87,93.9,93.83,93.9,2200
166,93.8,93.885,93.8,93.885,1900
167,93.77,93.81,93.765,93.8,3106
168,93.83,93.83,93.785,93.79,1483
169,93.78,93.83,93.78,93.83,4292
170,93.7564,93.79,93.7564,93.79,3415
171,93.8303,93.845,93.78,93.81,2000
172,93.8,93.83,93.79,93.83,700
173,93.8102,93.82,93.79,93.79,5207
174,93.71,93.8,93.71,93.8,4090
175,93.74,93.74,93.74,93.74,500
176,93.7,93.73,93.7,93.71,3600
177,93.7,93.72,93.69,93.69,3181
178,93.69,93.7,93.65,93.69,4694
179,93.71,93.71,93.675,93.69,2200
180,93.7,93.72,93.69,93.72,2200
181,93.73,93.73,93.7,93.7,1100
182,93.755,93.755,93.74,93.74,813
183,93.775,93.8,93.7692,93.79,1466
184,93.77,93.8,93.77,93.77,2800
185,93.76,93.76,93.76,93.76,412
186,93.71,93.76,93.71,93.75,1703
187,93.71,93.71,93.6896,93.71,4370
188,93.72,93.72,93.72,93.72,299
189,93.745,93.77,93.71,93.71,2616
190,93.69,93.74,93.69,93.73,300
191,93.71,93.73,93.705,93.71,3414
192,93.72,93.73,93.715,93.715,512
193,93.73,93.73,93.7,93.71,8414
194,93.74,93.77,93.73,93.75,4938
195,93.76,93.76,93.75,93.75,700
196,93.75,93.769,93.75,93.769,3992
197,93.71,93.74,93.71,93.74,774
199,93.72,93.72,93.7,93.7,1600
200,93.72,93.73,93.7,93.73,853
201,93.7,93.73,93.7,93.73,2406
202,93.68,93.71,93.68,93.69,2351
203,93.6569,93.67,93.65,93.67,3402
204,93.655,93.67,93.6528,93.655,2198
205,93.72,93.72,93.6551,93.66,2143
206,93.69,93.76,93.69,93.73,2981
207,93.69,93.6912,93.69,93.6912,1759
208,93.69,93.69,93.68,93.69,400
210,93.6,93.62,93.6,93.61,5602
211,93.66,93.66,93.6083,93.6083,1497
212,93.67,93.67,93.6592,93.67,300
213,93.66,93.68,93.6,93.67,5494
214,93.65,93.7,93.65,93.67,3050
215,93.6754,93.7,93.63,93.63,2093
217,93.55,93.65,93.55,93.63,4700
218,93.64,93.64,93.55,93.58,8066
219,93.6,93.64,93.57,93.64,900
220,93.535,93.59,93.535,93.56,1300
221,93.53,93.54,93.53,93.54,400
222,93.56,93.57,93.51,93.51,5751
223,93.44,93.51,93.42,93.51,2390
224,93.47,93.47,93.4,93.4,2400
225,93.43,93.45,93.43,93.45,700
226,93.45,93.47,93.4,93.4,4811
227,93.42,93.45,93.42,93.45,712
228,93.38,93.4,93.38,93.4,2476
229,93.34,93.39,93.34,93.39,2808
230,93.4,93.43,93.36,93.36,5921
231,93.43,93.43,93.4045,93.43,1200
232,93.41,93.4391,93.41,93.4391,818
233,93.4,93.43,93.4,93.43,300
234,93.505,93.51,93.42,93.42,4645
235,93.49,93.5,93.48,93.5,3700
236,93.51,93.56,93.47,93.48,5030
237,93.575,93.62,93.54,93.54,5155
238,93.6,93.6,93.56,93.56,1387
239,93.69,93.69,93.58,93.58,1867
240,93.641,93.68,93.6401,93.68,2700
241,93.6293,93.68,93.62,93.64,8165
242,93.59,93.62,93.59,93.62,803
243,93.61,93.66,93.58,93.58,3118
244,93.63,93.63,93.63,93.63,200
245,93.58,93.61,93.58,93.61,300
246,93.67,93.67,93.6,93.6,4852
247,93.57,93.6699,93.54,93.64,7312
248,93.6,93.6,93.53,93.54,2800
249,93.55,93.58,93.53,93.5772,7104
250,93.58,93.59,93.56,93.56,2411
251,93.565,93.58,93.55,93.55,1700
252,93.59,93.59,93.56,93.565,600
253,93.62,93.62,93.59,93.59,1157
254,93.58,93.605,93.57,93.59,2895
255,93.52,93.57,93.52,93.57,1520
256,93.55,93.59,93.53,93.54,4421
257,93.535,93.58,93.53,93.57,1900
258,93.56,93.57,93.52,93.54,5344
259,93.5456,93.56,93.5456,93.56,843
260,93.54,93.549,93.5,93.549,1846
261,93.63,93.635,93.54,93.54,3732
262,93.66,93.66,93.6,93.6,1300
263,93.62,93.69,93.62,93.69,1017
264,93.64,93.66,93.64,93.65,2812
265,93.67,93.67,93.6398,93.6398,1825
266,93.69,93.69,93.64,93.66,2034
267,93.68,93.71,93.66,93.7,1200
268,93.68,93.68,93.6765,93.68,305
269,93.7,93.7,93.65,93.65,2731
270,93.72,93.75,93.71,93.71,2900
271,93.69,93.76,93.69,93.75,7903
272,93.77,93.77,93.67,93.67,2843
273,93.7426,93.77,93.73,93.77,1231
274,93.76,93.77,93.73,93.73,3013
275,93.74,93.76,93.74,93.76,200
276,93.79,93.8,93.77,93.77,2682
277,93.78,93.79,93.77,93.78,1400
278,93.82,93.82,93.78,93.78,1860
279,93.79,93.83,93.79,93.83,2748
280,93.74,93.79,93.74,93.79,1306
281,93.73,93.73,93.7,93.73,1997
282,93.76,93.76,93.68,93.7348,3220
283,93.805,93.805,93.77,93.77,3102
284,93.8,93.87,93.79,93.805,6327
286,93.79,93.8,93.77,93.78,3639
287,93.78,93.82,93.76,93.76,5383
288,93.73,93.78,93.73,93.78,700
289,93.77,93.77,93.735,93.75,6656
290,93.69,93.78,93.69,93.77,1519
291,93.7,93.7425,93.68,93.694,7083
292,93.72,93.72,93.67,93.6975,2409
293,93.73,93.74,93.69,93.71,5536
294,93.72,93.75,93.72,93.72,2496
295,93.72,93.72,93.7111,93.7111,900
296,93.73,93.73,93.68,93.7131,2834
297,93.76,93.76,93.73,93.73,6724
298,93.8585,93.87,93.74,93.74,4063
299,93.85,93.88,93.81,93.88,6240
300,93.8,93.83,93.77,93.83,2940
301,93.72,93.7619,93.7,93.7619,1231
302,93.68,93.73,93.68,93.72,1910
303,93.67,93.67,93.65,93.66,1000
304,93.69,93.71,93.68,93.68,2245
305,93.74,93.74,93.6748,93.695,4414
306,93.7125,93.735,93.7,93.735,1158
307,93.73,93.73,93.67,93.69,3525
308,93.82,93.82,93.73,93.73,1400
309,93.8,93.83,93.8,93.82,4130
310,93.8,93.8,93.75,93.795,4281
311,93.78,93.8,93.78,93.79,1416
312,93.82,93.85,93.79,93.79,3826
313,93.8,93.82,93.8,93.8,1300
314,93.755,93.8,93.755,93.78,1733
315,93.71,93.76,93.7,93.755,6008
316,93.73,93.73,93.695,93.71,2580
317,93.68,93.71,93.67,93.71,3008
318,93.74,93.74,93.67,93.68,6588
319,93.67,93.74,93.67,93.74,2132
320,93.69,93.69,93.65,93.66,1989
321,93.68,93.7,93.68,93.685,1354
322,93.73,93.73,93.69,93.6912,3829
323,93.72,93.74,93.72,93.74,2505
324,93.69,93.71,93.68,93.7,4110
325,93.62,93.7,93.61,93.69,3146
326,93.66,93.7,93.6,93.6114,7301
327,93.69,93.71,93.65,93.65,2300
328,93.6738,93.7,93.6404,93.7,1026
329,93.645,93.6525,93.62,93.64,2647
330,93.55,93.64,93.55,93.64,3854
331,93.5897,93.59,93.54,93.54,2711
332,93.547,93.57,93.53,93.57,5489
333,93.53,93.545,93.52,93.545,2638
334,93.5321,93.55,93.52,93.55,1202
335,93.58,93.58,93.51,93.51,3100
336,93.54,93.57,93.53,93.57,4727
337,93.5098,93.54,93.5098,93.53,2509
338,93.44,93.53,93.41,93.5,9130
339,93.39,93.4225,93.38,93.41,3314
340,93.45,93.46,93.39,93.39,5381
341,93.49,93.49,93.44,93.445,5120
342,93.535,93.535,93.48,93.48,4662
343,93.5565,93.59,93.535,93.535,24670
344,93.57,93.57,93.54,93.54,5521
345,93.55,93.57,93.54,93.57,1251
346,93.54,93.545,93.54,93.545,1029
347,93.49,93.55,93.46,93.54,15502
348,93.53,93.53,93.5,93.5,2659
349,93.53,93.53,93.49,93.51,5526
350,93.52,93.55,93.49,93.53,5246
351,93.51,93.51,93.48,93.5,3806
352,93.49,93.51,93.49,93.5,8418
353,93.41,93.49,93.41,93.49,5366
354,93.37,93.43,93.34,93.41,5115
355,93.36,93.38,93.3,93.35,9028
356,93.33,93.37,93.33,93.37,8803
357,93.31,93.33,93.29,93.33,5400
358,93.4,93.4,93.33,93.33,7832
359,93.45,93.45,93.39,93.4,6473
360,93.4201,93.46,93.42,93.45,8903
361,93.5146,93.53,93.45,93.45,6956
362,93.5368,93.55,93.52,93.53,7209
363,93.46,93.55,93.42,93.54,8100
364,93.49,93.49,93.45,93.46,8002
365,93.52,93.55,93.49,93.49,13469
366,93.45,93.51,93.45,93.51,6920
367,93.47,93.48,93.42,93.45,6588
368,93.43,93.48,93.43,93.46,7977
369,93.435,93.435,93.41,93.41,5564
370,93.5,93.51,93.4282,93.4282,9999
371,93.505,93.53,93.5,93.52,5490
372,93.49,93.51,93.48,93.51,8467
373,93.52,93.52,93.45,93.5,8911
374,93.51,93.53,93.49,93.51,8484
375,93.49,93.515,93.48,93.48,9621
376,93.46,93.49,93.42,93.47,13588
377,93.43,93.46,93.41,93.46,7952
378,93.38,93.44,93.37,93.43,10069
379,93.4,93.415,93.365,93.38,11208
380,93.43,93.44,93.39,93.41,10330
381,93.435,93.445,93.42,93.43,9604
382,93.52,93.525,93.435,93.435,17625
383,93.47,93.52,93.46,93.515,11454
384,93.43,93.465,93.422,93.465,8003
385,93.445,93.46,93.43,93.44,16549
386,93.41,93.44,93.385,93.44,19077
387,93.43,93.45,93.4,93.41,23602
388,93.44,93.44,93.42,93.43,17544
389,93.415,93.45,93.385,93.43,30629
390,93.32,93.415,93.27,93.41,52870
