PPG,PPG Industries,Materials,8,Specialty Chemicals,27368603564,2007581
a1492695000,105.63,105.63,105.63,105.63,13242
1,105.23,105.8,105.19,105.315,11269
2,105.26,105.34,104.36,104.48,4525
3,105.995,106,105.33,105.33,9082
4,105.68,106,105.31,105.85,4800
5,106.36,106.49,105.34,105.48,57662
6,106.27,106.4,105.93,106.4,16121
7,106.46,106.475,106,106.155,9932
8,106.31,106.38,105.8219,106.28,4481
9,106.28,106.33,106.05,106.06,2850
10,106.18,106.18,105.81,106.12,7385
11,106.095,106.18,105.965,106.13,10146
12,106.14,106.24,106.037,106.037,6642
13,105.94,106.17,105.94,106.17,1541
14,106.11,106.15,105.95,106.005,3100
15,106.23,106.34,106.08,106.09,14605
16,106.08,106.235,106.05,106.2,2625
17,106.09,106.16,105.96,106.11,7140
18,105.98,106.03,105.96,106.02,2000
19,106.105,106.105,106.02,106.02,3345
20,106.02,106.18,105.9901,106.1,2152
21,106.09,106.09,106.02,106.06,2128
22,106.115,106.14,106.03,106.09,3701
23,106.11,106.14,106.11,106.14,200
24,106.01,106.09,105.85,106.07,10802
25,105.93,106.08,105.84,106.04,3600
26,105.95,105.97,105.87,105.92,4287
27,105.85,105.96,105.71,105.92,5044
28,105.845,105.88,105.84,105.84,1330
29,105.825,105.9,105.67,105.88,6873
30,105.73,105.88,105.71,105.85,9932
31,105.87,105.93,105.7,105.7,5600
32,105.68,105.85,105.67,105.85,14673
33,105.6766,105.81,105.65,105.71,5600
34,105.69,105.77,105.65,105.65,3900
35,105.49,105.65,105.24,105.64,22716
36,105.58,105.63,105.46,105.52,4600
37,105.58,105.58,105.58,105.58,200
38,105.74,105.74,105.56,105.57,3334
39,105.75,105.8,105.63,105.69,17250
40,105.76,105.8,105.7,105.74,9632
41,105.86,105.86,105.7,105.78,115920
42,105.835,105.93,105.75,105.845,21917
43,105.95,105.95,105.84,105.85,3500
44,105.87,105.92,105.87,105.9106,2713
45,105.87,105.87,105.78,105.87,3753
46,105.87,105.95,105.85,105.91,3331
47,105.8804,105.89,105.83,105.88,3462
48,105.81,105.88,105.76,105.88,3800
49,105.81,105.83,105.78,105.78,1000
50,105.82,105.88,105.81,105.81,790
51,105.7864,105.86,105.77,105.86,7800
52,105.72,105.79,105.68,105.77,8564
53,105.66,105.75,105.65,105.72,52611
54,105.67,105.73,105.67,105.7,700
55,105.66,105.7289,105.58,105.7289,5974
56,105.55,105.71,105.55,105.71,3600
57,105.575,105.6,105.57,105.6,1543
58,105.55,105.68,105.55,105.6,3169
59,105.6,105.6,105.52,105.52,3399
60,105.62,105.62,105.62,105.62,300
61,105.69,105.71,105.62,105.62,3477
62,105.6954,105.7,105.63,105.67,3802
63,105.7,105.85,105.67,105.67,6800
64,105.68,105.71,105.65,105.65,2100
65,105.77,105.77,105.725,105.73,1290
66,105.6,105.78,105.6,105.78,12111
67,105.41,105.61,105.41,105.575,5958
68,105.4,105.45,105.38,105.42,3998
69,105.515,105.515,105.4082,105.4082,2700
70,105.5,105.5,105.42,105.47,1110
71,105.51,105.56,105.51,105.5114,1797
72,105.5,105.5172,105.49,105.5172,788
73,105.61,105.61,105.492,105.492,3441
74,105.57,105.71,105.57,105.61,2268
75,105.73,105.73,105.63,105.63,1500
76,105.66,105.78,105.66,105.78,4632
77,105.68,105.7,105.65,105.65,4402
78,105.64,105.675,105.63,105.66,1299
79,105.665,105.77,105.65,105.65,4677
80,105.65,105.69,105.61,105.675,2700
81,105.59,105.64,105.59,105.64,1123
82,105.595,105.62,105.595,105.6,1420
83,105.6,105.6,105.55,105.57,2300
84,105.57,105.5815,105.56,105.5815,2641
85,105.64,105.64,105.5,105.55,3655
86,105.64,105.64,105.64,105.64,100
87,105.66,105.695,105.63,105.68,2313
88,105.72,105.72,105.67,105.67,900
89,105.78,105.78,105.75,105.75,1600
90,105.7799,105.78,105.74,105.76,4311
91,105.75,105.82,105.75,105.77,1965
92,105.72,105.73,105.72,105.73,300
93,105.68,105.77,105.68,105.72,1600
94,105.65,105.69,105.65,105.69,1500
95,105.7,105.72,105.63,105.64,4100
96,105.68,105.7,105.67,105.68,2600
97,105.71,105.71,105.69,105.69,400
98,105.78,105.84,105.72,105.72,4250
100,105.79,105.79,105.74,105.775,4322
101,105.79,105.79,105.72,105.76,3501
102,105.73,105.81,105.73,105.8,4209
103,105.72,105.76,105.7,105.71,2735
104,105.75,105.81,105.75,105.76,3925
105,105.77,105.78,105.73,105.78,500
106,105.69,105.7625,105.69,105.74,954
107,105.6,105.66,105.6,105.66,700
108,105.6001,105.6283,105.6001,105.6283,1067
109,105.65,105.67,105.64,105.64,900
110,105.7,105.7,105.64,105.65,900
111,105.675,105.7,105.675,105.7,1000
112,105.68,105.6885,105.65,105.6885,1850
113,105.74,105.74,105.64,105.64,1100
115,105.73,105.77,105.71,105.72,6700
116,105.681,105.681,105.681,105.681,100
117,105.67,105.73,105.66,105.72,7400
118,105.73,105.73,105.67,105.68,1800
121,105.7773,105.8,105.7525,105.7525,1097
123,105.8052,105.81,105.78,105.78,35917
124,105.82,105.82,105.81,105.81,600
125,105.99,106,105.85,105.85,5600
126,105.97,105.97,105.9583,105.97,991
127,105.96,106,105.94,105.97,4400
128,105.94,105.95,105.92,105.95,1600
129,106.13,106.13,105.91,105.9275,4125
130,106.08,106.12,106.08,106.12,600
131,106.07,106.07,106.07,106.07,300
132,106.05,106.08,106.05,106.08,300
133,106.07,106.07,106.05,106.05,500
134,106.02,106.06,106.02,106.06,3953
135,106.065,106.09,106.02,106.02,2645
136,106,106.03,105.98,106.03,2602
137,105.9915,106.03,105.97,106.03,2550
138,106.08,106.09,106.02,106.02,1572
139,106.005,106.04,105.97,106.04,4836
140,106.09,106.1,106.03,106.03,5900
141,106.08,106.12,106.04,106.09,4287
142,106,106.14,106,106.1,4500
143,106.01,106.01,105.99,105.99,1200
144,105.99,106.03,105.99,106.03,1464
145,106.02,106.02,105.98,106,700
146,105.9,106.02,105.9,106.02,2404
147,105.93,105.98,105.9,105.9,1897
148,105.93,105.93,105.93,105.93,100
149,105.92,105.99,105.92,105.99,997
150,105.74,105.9,105.73,105.9,5404
151,105.76,105.8,105.76,105.78,1900
152,105.81,105.86,105.7901,105.8,4405
153,105.9,105.9,105.83,105.84,4272
154,105.935,105.935,105.85,105.89,2623
155,105.9,105.98,105.89,105.98,2000
156,106.06,106.15,105.925,105.925,9700
157,106.04,106.14,106.04,106.1,4500
158,106.01,106.01,106.01,106.01,100
159,106.025,106.0325,106.01,106.03,1500
160,106.01,106.0325,106.01,106.025,1100
161,105.96,106.04,105.95,106.01,5556
162,105.93,105.97,105.93,105.97,1100
163,105.94,105.96,105.9,105.92,2700
164,105.94,105.96,105.94,105.95,900
165,105.97,106.01,105.97,105.975,3100
166,105.92,105.97,105.92,105.96,600
167,105.89,105.95,105.89,105.95,2353
168,105.88,105.96,105.88,105.93,1800
169,105.9,105.91,105.9,105.91,300
171,105.97,106.01,105.905,105.905,5000
172,105.88,105.95,105.88,105.95,1600
173,105.92,105.92,105.88,105.88,1700
174,105.9,105.9,105.9,105.9,100
175,105.92,105.92,105.92,105.92,200
176,105.84,105.94,105.84,105.94,3938
177,105.86,105.87,105.86,105.87,800
178,105.89,105.89,105.87,105.88,900
179,105.87,105.885,105.87,105.88,1300
180,105.85,105.88,105.85,105.88,1456
181,105.885,105.9,105.86,105.88,5273
182,105.87,105.89,105.87,105.87,600
183,105.91,105.9475,105.85,105.89,10842
184,105.905,105.905,105.905,105.905,100
185,105.91,105.91,105.84,105.88,2300
186,105.85,105.9,105.85,105.8627,8203
187,105.89,105.91,105.89,105.89,1100
188,105.98,105.98,105.91,105.91,200
189,105.92,105.98,105.92,105.9448,12390
190,105.91,105.94,105.91,105.94,500
191,106.01,106.05,105.97,105.97,5582
192,105.99,105.99,105.99,105.99,2138
193,105.96,105.98,105.96,105.98,1500
194,106.01,106.01,106.01,106.01,1072
196,106.04,106.07,106.04,106.05,700
197,106.05,106.07,106.05,106.07,600
199,106.02,106.09,106.01,106.08,4200
200,106.065,106.07,106.065,106.07,500
201,106.08,106.08,106.05,106.05,900
202,106.05,106.08,106.05,106.08,2200
203,106.01,106.03,106.01,106.03,1383
204,106.01,106.025,105.99,106.025,2362
205,106.03,106.03,106,106,305
207,106.075,106.1,106.06,106.08,800
208,106.09,106.1,106.07,106.08,827
209,106.055,106.08,106.04,106.08,3000
210,106.01,106.07,106,106.055,4676
211,106.09,106.1,106.02,106.02,2000
212,106.09,106.1,106.09,106.1,2900
213,106.1,106.11,106.09,106.1,3392
214,106.04,106.1,106.04,106.1,17500
215,106.0756,106.0756,106.055,106.055,800
216,106.07,106.1,106.07,106.07,3600
217,106.06,106.07,106.06,106.07,1000
218,106.08,106.09,106.07,106.09,4805
219,106.09,106.1,106.06,106.06,3318
220,106.03,106.12,106.03,106.1,5943
221,105.96,106.02,105.96,106.02,2867
222,105.9456,106,105.9456,105.98,2194
223,105.93,105.93,105.93,105.93,400
224,105.93,105.93,105.9,105.9,1005
225,105.94,105.96,105.91,105.93,2314
226,105.93,105.93,105.93,105.93,300
228,105.91,105.97,105.91,105.97,400
230,105.97,105.97,105.92,105.92,1605
231,105.96,106.02,105.96,106,2822
232,105.96,105.975,105.96,105.96,700
233,105.96,105.96,105.93,105.93,1900
234,105.97,105.9869,105.97,105.9869,350
235,106.02,106.02,105.99,105.99,3205
236,105.98,106.02,105.98,105.9854,7555
237,106.01,106.02,106.01,106.02,1900
238,106.01,106.02,106.01,106.02,1005
239,106.06,106.06,106.02,106.02,2500
240,106.07,106.07,106.07,106.07,152
241,106.08,106.08,106.07,106.07,961
242,106.1,106.1,106.085,106.0897,2150
243,106.07,106.085,106.07,106.085,300
244,106.095,106.1,106.07,106.07,3293
246,106.1,106.12,106.07,106.09,3000
247,106.09,106.1,106.08,106.09,1400
248,106.07,106.12,106.07,106.1,3445
249,106.11,106.11,106.1,106.1,1625
250,106.11,106.11,106.09,106.1,2800
251,106.1075,106.1075,106.08,106.09,3005
252,106.07,106.105,106.07,106.1,1525
253,106.1,106.1,106.09,106.09,1350
254,106.0951,106.1,106.0951,106.1,900
255,106.05,106.1,106.05,106.1,2654
256,106.1,106.1,106.07,106.07,900
257,106.105,106.11,106.1,106.1,1100
258,106.115,106.12,106.105,106.105,1300
259,106.07,106.11,106.07,106.11,1800
260,106.1,106.1,106.0601,106.0601,648
261,106.11,106.12,106.1,106.1,2730
262,106.11,106.12,106.09,106.1,2600
263,106.11,106.12,106.1,106.12,3100
264,106.12,106.12,106.1,106.1,300
265,106.11,106.16,106.11,106.12,7624
266,106.19,106.19,106.07,106.1,23835
267,106.25,106.25,106.2,106.2,600
268,106.29,106.3,106.23,106.25,4500
269,106.4,106.4,106.295,106.2999,2283
270,106.55,106.55,106.46,106.46,2837
271,106.48,106.61,106.48,106.55,4402
272,106.39,106.49,106.36,106.45,2000
273,106.36,106.38,106.3168,106.35,500
274,106.379,106.379,106.29,106.37,2012
275,106.33,106.4,106.33,106.37,1200
276,106.39,106.4,106.35,106.39,2100
277,106.36,106.44,106.36,106.41,2577
278,106.38,106.39,106.34,106.36,1430
279,106.4,106.4,106.39,106.39,600
280,106.32,106.41,106.32,106.39,3100
281,106.28,106.35,106.27,106.33,23500
282,106.23,106.24,106.19,106.24,880
283,106.37,106.37,106.205,106.21,5150
284,106.41,106.41,106.35,106.35,1600
285,106.41,106.43,106.37,106.4,21000
286,106.3,106.41,106.3,106.37,3400
287,106.29,106.35,106.29,106.31,2700
288,106.29,106.29,106.26,106.28,820
289,106.3,106.31,106.3,106.31,800
290,106.39,106.39,106.3,106.3,900
291,106.42,106.42,106.38,106.38,3900
292,106.43,106.45,106.38,106.38,1400
293,106.48,106.5,106.45,106.45,1700
294,106.5214,106.53,106.48,106.48,1195
295,106.54,106.6,106.54,106.57,2400
296,106.45,106.55,106.45,106.55,2975
297,106.4,106.48,106.4,106.47,1400
298,106.4009,106.53,106.39,106.45,48928
299,106.22,106.35,106.22,106.35,1400
300,106.14,106.22,106.08,106.22,2820
301,106.2,106.2227,106.13,106.16,2820
302,106.14,106.18,106.14,106.18,1500
303,106.15,106.19,106.15,106.19,900
304,106.23,106.23,106.15,106.15,3698
305,106.255,106.2699,106.19,106.23,5630
306,106.3,106.3,106.26,106.26,1400
307,106.1,106.4,106.1,106.25,17600
308,106.21,106.22,106.1,106.1,2900
309,106.14,106.22,106.14,106.22,2100
310,106.16,106.19,106.13,106.13,1200
311,106.175,106.2,106.16,106.17,2714
312,106.13,106.18,106.13,106.18,2400
313,106.18,106.19,106.16,106.16,2100
314,106.19,106.21,106.16,106.16,1300
315,106.16,106.22,106.16,106.215,1400
316,106.21,106.23,106.1632,106.1632,1500
317,106.21,106.23,106.21,106.22,1700
318,106.025,106.22,105.99,106.21,15826
319,106.09,106.13,106.015,106.015,1955
320,106.16,106.16,106.095,106.095,1500
321,106.17,106.17,106.13,106.166,2800
322,106.26,106.26,106.13,106.17,806
323,106.22,106.23,106.22,106.23,400
324,106.225,106.24,106.22,106.22,1400
325,106.25,106.25,106.25,106.25,100
326,106.32,106.32,106.2,106.2,900
327,106.32,106.32,106.32,106.32,100
328,106.33,106.33,106.3,106.32,4356
329,106.2,106.33,106.2,106.33,10270
330,106.2,106.24,106.2,106.22,2300
331,106.27,106.31,106.24,106.24,2400
332,106.24,106.31,106.24,106.31,1300
333,106.28,106.28,106.24,106.24,1100
334,106.35,106.35,106.28,106.28,1500
335,106.3,106.37,106.29,106.34,5359
336,106.33,106.33,106.3257,106.3257,823
337,106.37,106.37,106.34,106.34,400
338,106.38,106.38,106.36,106.37,1600
339,106.42,106.42,106.38,106.38,1600
340,106.41,106.435,106.41,106.42,2396
341,106.4,106.42,106.36,106.42,4903
342,106.4,106.4,106.4,106.4,500
343,106.45,106.45,106.39,106.39,1200
344,106.39,106.45,106.39,106.44,2504
345,106.4,106.4,106.4,106.4,24300
346,106.45,106.45,106.41,106.41,2679
347,106.44,106.45,106.43,106.45,1511
348,106.476,106.476,106.44,106.45,2024
349,106.43,106.48,106.43,106.48,2300
350,106.44,106.44,106.43,106.44,1757
351,106.45,106.45,106.43,106.43,1600
352,106.425,106.47,106.42,106.44,4001
353,106.39,106.425,106.34,106.425,6001
354,106.41,106.42,106.37,106.37,2630
355,106.37,106.41,106.33,106.41,4024
356,106.36,106.38,106.35,106.38,1871
357,106.3,106.37,106.3,106.37,5532
358,106.36,106.36,106.31,106.31,2499
359,106.38,106.38,106.3695,106.37,1300
360,106.3195,106.37,106.29,106.37,6239
361,106.35,106.35,106.3,106.32,3900
362,106.44,106.44,106.38,106.38,3407
363,106.32,106.46,106.23,106.445,14861
364,106.36,106.36,106.325,106.325,4200
365,106.26,106.36,106.26,106.35,4901
366,106.28,106.28,106.24,106.25,3049
367,106.31,106.31,106.28,106.28,54551
368,106.25,106.3,106.25,106.3,7325
369,106.24,106.28,106.24,106.2577,4864
370,106.325,106.33,106.24,106.24,24513
371,106.33,106.35,106.32,106.33,3667
372,106.32,106.36,106.32,106.32,4733
373,106.34,106.35,106.3202,106.3202,4282
374,106.36,106.37,106.35,106.355,3100
375,106.33,106.36,106.33,106.355,9214
376,106.37,106.37,106.325,106.325,6889
377,106.4,106.43,106.365,106.365,5407
378,106.32,106.41,106.31,106.41,8855
379,106.29,106.3299,106.28,106.32,8645
380,106.28,106.3,106.27,106.285,12871
381,106.31,106.31,106.27,106.2793,8447
382,106.305,106.32,106.29,106.31,16521
383,106.31,106.325,106.29,106.31,13453
384,106.305,106.32,106.29,106.32,14188
385,106.36,106.38,106.305,106.305,7062
386,106.32,106.37,106.3,106.36,14446
387,106.36,106.36,106.32,106.33,7409
388,106.38,106.42,106.36,106.36,25693
389,106.43,106.44,106.36,106.38,16841
390,106.37,106.48,106.37,106.42,32818
