EOG,EOG Resources,Energy,3,Oil & Gas Exploration & Production,53204527742,3416093
a1500643860,93.48,93.48,93.35,93.39,5148
1,93.54,93.59,93.39,93.43,6338
2,93.47,93.64,93.42,93.47,161153
3,93.79,93.79,93.55,93.55,1300
4,93.54,93.8,93.38,93.8,5594
5,93.455,93.58,93.44,93.57,5175
6,93.43,93.53,93.4,93.41,3672
7,93.45,93.51,93.42,93.43,3700
8,93.36,93.47,93.31,93.47,3539
9,93.25,93.33,93.15,93.33,1900
10,93.07,93.25,93.05,93.25,6100
11,93.15,93.19,93.08,93.09,8493
12,93.2,93.28,93.1,93.1,10726
13,93.15,93.23,93.13,93.22,2525
14,93.18,93.23,93.15,93.22,1100
15,93.17,93.23,93.13,93.16,45797
16,93.23,93.245,93.17,93.18,3700
17,93.31,93.32,93.17,93.22,8102
18,93.25,93.29,93.22,93.27,5551
19,93.24,93.26,93.21,93.245,6800
20,93.28,93.34,93.24,93.29,60827
21,93.25,93.39,93.25,93.28,20155
22,93.2,93.23,93.02,93.23,5484
23,93.26,93.29,93.17,93.2012,6613
24,93.25,93.28,93.17,93.28,6293
25,93.17,93.23,93.16,93.2,6225
26,93.15,93.23,93.14,93.17,10500
27,93.03,93.17,93.03,93.17,3394
28,92.94,93.055,92.94,93.04,3805
29,92.86,92.91,92.83,92.91,7116
30,92.81,92.88,92.78,92.88,2300
31,92.7874,92.86,92.7801,92.82,12844
32,92.74,92.82,92.74,92.7887,3912
33,92.52,92.75,92.52,92.75,13477
34,92.57,92.64,92.485,92.5066,15412
35,92.53,92.56,92.5,92.56,7773
36,92.64,92.66,92.55,92.55,7451
37,92.54,92.62,92.52,92.62,7403
38,92.55,92.62,92.49,92.53,4262
39,92.48,92.56,92.48,92.55,4158
40,92.49,92.5,92.43,92.5,6043
41,92.43,92.49,92.42,92.48,4464
42,92.47,92.47,92.38,92.45,8197
43,92.64,92.64,92.5,92.51,6987
44,92.69,92.695,92.65,92.65,1994
45,92.6201,92.71,92.61,92.71,5226
46,92.615,92.65,92.58,92.64,4260
47,92.61,92.64,92.575,92.6,3400
48,92.72,92.75,92.62,92.63,7374
49,92.58,92.68,92.58,92.68,4857
50,92.56,92.64,92.56,92.59,5418
51,92.625,92.64,92.57,92.57,2500
52,92.67,92.69,92.58,92.6,3200
53,92.76,92.77,92.61,92.67,5970
54,92.78,92.8,92.72,92.75,2600
55,92.77,92.81,92.75,92.79,1600
56,92.67,92.74,92.65,92.74,6000
57,92.69,92.69,92.64,92.67,3101
58,92.8,92.8,92.69,92.69,4907
59,92.77,92.81,92.75,92.81,2400
60,92.74,92.79,92.73,92.7601,3844
61,92.73,92.7475,92.66,92.74,4276
62,92.6525,92.75,92.6525,92.73,2020
63,92.68,92.73,92.65,92.66,3000
64,92.7,92.77,92.62,92.67,6600
65,92.735,92.77,92.68,92.71,5741
66,92.77,92.82,92.74,92.74,4385
67,92.79,92.79,92.72,92.76,11303
68,92.76,92.82,92.7,92.8,11760
69,92.81,92.83,92.77,92.77,3689
70,92.71,92.79,92.65,92.79,7249
71,92.7,92.7247,92.68,92.68,5483
72,92.67,92.69,92.61,92.69,5001
73,92.72,92.72,92.62,92.65,3105
74,92.75,92.77,92.7117,92.74,4200
75,92.73,92.76,92.69,92.72,4448
76,92.76,92.77,92.71,92.73,3300
77,92.69,92.76,92.68,92.76,10857
78,92.74,92.74,92.67,92.69,8710
79,92.67,92.74,92.67,92.74,2600
80,92.72,92.74,92.67,92.675,7277
81,92.73,92.73,92.71,92.72,1500
82,92.71,92.74,92.67,92.74,4638
83,92.75,92.77,92.71,92.72,2000
84,92.7,92.77,92.7,92.77,5185
85,92.72,92.74,92.68,92.68,4400
86,92.64,92.72,92.64,92.72,3660
87,92.66,92.68,92.64,92.67,4210
88,92.69,92.69,92.62,92.65,1800
89,92.7,92.7,92.67,92.69,4042
90,92.79,92.79,92.71,92.71,2700
91,92.86,92.89,92.79,92.79,9741
92,92.96,92.96,92.88,92.88,4200
93,92.87,92.97,92.87,92.97,2733
94,92.89,92.93,92.85,92.85,9400
95,92.97,92.97,92.89,92.89,4332
96,92.98,92.99,92.97,92.99,1818
97,93,93.08,92.99,93,5219
98,93.01,93.06,93,93.01,4340
99,92.97,92.985,92.94,92.97,2623
100,92.99,93,92.97,92.975,5674
101,93.1,93.11,92.99,92.99,1900
102,93.05,93.09,93.05,93.09,3634
103,93.08,93.09,93.06,93.06,2600
104,93.01,93.07,93,93.07,2301
105,92.97,93.02,92.97,93,5390
106,92.93,92.99,92.91,92.99,4027
107,92.91,92.9278,92.91,92.9278,400
108,92.935,92.945,92.92,92.92,5072
109,92.97,93,92.925,92.93,2998
110,92.905,92.97,92.905,92.96,2500
111,92.89,92.91,92.87,92.88,3411
112,92.86,92.89,92.86,92.88,3400
113,92.94,92.95,92.88,92.88,2600
114,92.93,92.93,92.9,92.92,2700
115,93.01,93.02,92.94,92.94,3100
116,93.02,93.05,93.02,93.02,1700
117,93.075,93.09,93.03,93.03,2400
118,93.06,93.09,93.06,93.06,1800
119,93.06,93.1,93.03,93.06,3594
120,93.04,93.06,93.0301,93.06,1300
121,93.08,93.08,93.05,93.06,2400
122,93.0786,93.08,93.06,93.07,1494
123,93.01,93.075,92.99,93.075,3173
124,92.97,92.98,92.97,92.98,800
125,92.99,93.04,92.96,92.97,3510
126,92.995,93,92.995,93,800
127,92.88,92.99,92.85,92.99,3100
128,92.84,92.919,92.84,92.8866,6210
129,92.83,92.85,92.82,92.82,2000
130,92.88,92.88,92.82,92.82,1893
131,92.87,92.89,92.86,92.88,1900
132,92.86,92.88,92.8375,92.85,2020
133,92.88,92.92,92.88,92.88,3515
134,92.87,92.9,92.83,92.84,2202
135,92.87,92.88,92.81,92.85,6771
136,92.85,92.9,92.84,92.88,2000
137,92.81,92.835,92.8,92.835,7400
138,92.76,92.8,92.76,92.8,2100
139,92.77,92.81,92.7,92.79,6543
140,92.835,92.835,92.75,92.77,3795
141,92.88,92.915,92.82,92.82,4314
142,92.92,92.93,92.87,92.87,1702
143,92.89,92.91,92.89,92.91,500
144,92.85,92.88,92.83,92.88,2000
145,92.82,92.86,92.82,92.85,1700
146,92.86,92.87,92.83,92.83,3133
147,92.83,92.85,92.83,92.85,1500
148,92.82,92.82,92.75,92.8,1500
149,92.81,92.83,92.79,92.82,2123
150,92.88,92.88,92.75,92.8,3200
151,92.93,92.93,92.84,92.86,1700
152,92.88,92.9299,92.88,92.9299,1500
153,92.9099,92.9099,92.86,92.89,2448
154,92.9,92.9,92.865,92.88,854
155,92.93,92.94,92.9,92.91,1430
156,92.98,92.98,92.93,92.93,800
157,92.95,92.98,92.95,92.98,2463
158,92.97,92.97,92.94,92.945,1100
159,92.93,92.97,92.93,92.97,1900
160,92.95,92.95,92.92,92.92,600
161,92.88,92.93,92.84,92.93,1900
162,92.94,92.95,92.9,92.9,2000
163,92.93,92.94,92.93,92.93,562
164,92.91,92.94,92.91,92.94,900
165,93.02,93.02,92.9,92.9,1300
166,93.03,93.03,93,93.02,3036
167,93.05,93.0796,93.05,93.06,800
168,93.07,93.07,93.02,93.03,1000
169,93.06,93.1,93.06,93.06,1500
170,93.05,93.06,93.05,93.06,1080
171,93.07,93.07,93.05,93.05,700
172,92.97,93.08,92.96,93.08,8211
173,92.93,92.99,92.9,92.99,4700
174,92.88,92.92,92.87,92.92,2800
175,92.91,92.92,92.86,92.89,2917
176,92.94,92.94,92.9,92.9,700
177,92.9,92.92,92.89,92.92,1202
178,92.93,92.93,92.82,92.86,3016
179,92.94,92.96,92.91,92.93,5300
180,92.9,92.94,92.88,92.94,819
181,92.915,92.96,92.9,92.92,1604
182,92.87,92.9,92.83,92.88,2918
183,92.86,92.86,92.86,92.86,300
184,92.77,92.83,92.77,92.83,1717
185,92.77,92.84,92.76,92.76,2110
186,92.82,92.82,92.78,92.8,1300
187,92.78,92.81,92.78,92.81,600
188,92.81,92.815,92.78,92.78,1850
189,92.81,92.81,92.81,92.81,100
190,92.78,92.83,92.78,92.81,5948
191,92.77,92.8,92.75,92.8,1401
192,92.74,92.78,92.74,92.77,5290
193,92.749,92.77,92.74,92.75,2200
194,92.7,92.73,92.6728,92.73,3408
195,92.72,92.72,92.68,92.7,3644
196,92.72,92.74,92.72,92.73,2916
197,92.6844,92.7,92.66,92.7,3914
198,92.72,92.72,92.69,92.7,1950
199,92.74,92.75,92.69,92.7,2704
200,92.7578,92.7578,92.74,92.75,1940
201,92.6899,92.74,92.6899,92.74,1275
202,92.7,92.72,92.64,92.7,16544
203,92.65,92.68,92.63,92.68,2628
204,92.65,92.69,92.65,92.66,1616
205,92.68,92.68,92.62,92.62,1410
206,92.68,92.7,92.66,92.66,4850
207,92.74,92.75,92.6866,92.6866,1846
208,92.74,92.74,92.71,92.72,1361
209,92.75,92.75,92.74,92.74,900
210,92.79,92.79,92.755,92.755,1800
211,92.8,92.83,92.78,92.81,11400
212,92.9,92.9,92.8,92.8,2500
213,92.82,92.89,92.82,92.89,2269
214,92.85,92.86,92.83,92.8599,1473
215,92.86,92.88,92.81,92.84,1900
216,92.88,92.91,92.84,92.86,1500
217,92.85,92.88,92.82,92.87,2500
218,92.87,92.87,92.84,92.87,1800
219,92.89,92.91,92.86,92.86,1500
220,92.88,92.92,92.88,92.89,1600
221,92.829,92.87,92.829,92.87,703
222,92.8,92.82,92.8,92.8,1600
223,92.85,92.85,92.81,92.81,900
224,92.78,92.82,92.78,92.82,900
225,92.79,92.79,92.76,92.78,2900
226,92.87,92.87,92.81,92.81,2900
227,92.87,92.87,92.8439,92.85,1100
228,92.91,92.91,92.85,92.85,1400
229,92.88,92.91,92.87,92.91,1279
230,92.84,92.87,92.84,92.85,1500
231,92.813,92.813,92.813,92.813,240
232,92.86,92.86,92.81,92.81,1300
233,92.87,92.87,92.8568,92.869,1557
234,92.86,92.86,92.86,92.86,200
235,92.9,92.91,92.86,92.86,3474
236,92.95,92.95,92.91,92.91,6722
237,92.9833,92.99,92.95,92.95,1708
238,92.99,93.02,92.99,93,2800
239,93,93.04,92.97,93.01,1858
240,93.02,93.02,92.99,93,2300
241,93.0499,93.055,93.02,93.02,2715
242,93.05,93.05,93.02,93.02,1980
243,93.07,93.07,93.02,93.03,4020
244,93.07,93.09,93.07,93.09,400
245,93.06,93.07,93.04,93.07,900
246,93.08,93.11,93.06,93.06,1500
247,93.09,93.1,93.0501,93.0501,1450
248,93.095,93.14,93.095,93.1,4531
249,93.1,93.12,93.09,93.11,1200
250,93.1,93.1,93.09,93.09,1500
251,93.09,93.1,93.08,93.1,1200
252,93.05,93.06,93.02,93.06,1600
253,93.01,93.07,93.01,93.07,800
254,93.01,93.0101,93.01,93.01,550
255,93,93.01,92.98,93.01,3959
256,92.97,93.0034,92.96,93,1600
257,93.03,93.03,92.98,92.98,1100
258,92.99,93.02,92.99,93.01,2247
259,92.96,93.04,92.96,93.02,2800
260,92.94,92.95,92.93,92.94,1100
261,92.9276,92.94,92.91,92.94,2187
262,92.91,92.924,92.91,92.9201,1100
263,92.92,92.93,92.91,92.92,2901
264,92.92,92.93,92.9078,92.92,1598
265,92.93,92.95,92.885,92.91,3800
266,92.92,92.93,92.91,92.93,900
267,92.93,92.94,92.92,92.92,1600
268,92.94,92.95,92.94,92.94,1700
269,92.83,92.93,92.82,92.93,3470
270,92.89,92.89,92.8186,92.85,2848
271,92.93,92.93,92.89,92.9,1900
272,92.92,92.97,92.88,92.97,3933
273,92.95,92.95,92.9,92.93,856
274,92.91,92.95,92.91,92.95,1305
275,92.89,92.9,92.89,92.9,1646
276,92.89,92.94,92.89,92.89,2900
277,92.89,92.91,92.89,92.89,1782
278,92.91,92.91,92.9,92.9,500
279,92.91,92.91,92.9,92.9,1750
280,92.93,92.93,92.91,92.92,861
281,92.99,92.99,92.93,92.93,1450
282,92.98,93.03,92.97,93,8555
283,93,93,92.93,92.98,4410
284,93,93.0296,93,93.01,1118
285,92.98,93.02,92.98,93.02,2550
286,93.0354,93.055,92.98,93,3927
287,93.09,93.09,93,93.01,2799
288,93.09,93.11,93.06,93.06,3231
289,93.23,93.23,93.13,93.15,5188
290,93.3,93.3,93.21,93.24,10326
291,93.24,93.31,93.23,93.31,3500
292,93.2,93.235,93.18,93.235,3900
293,93.19,93.2,93.16,93.17,5650
294,93.17,93.19,93.12,93.19,2100
295,93.19,93.21,93.19,93.21,2400
296,93.16,93.21,93.15,93.19,4289
297,93.24,93.24,93.13,93.15,11756
298,93.229,93.25,93.19,93.23,5332
299,93.23,93.23,93.19,93.22,1752
300,93.21,93.25,93.19,93.25,1500
301,93.15,93.21,93.13,93.2,3505
302,93.16,93.16,93.16,93.16,100
303,93.19,93.21,93.18,93.2,1100
304,93.22,93.22,93.17,93.18,3309
305,93.22,93.2299,93.165,93.2299,2600
306,93.24,93.24,93.23,93.23,200
307,93.23,93.28,93.23,93.25,3600
308,93.1878,93.24,93.1878,93.23,1700
309,93.165,93.19,93.155,93.17,2500
310,93.13,93.15,93.13,93.15,500
311,93.09,93.12,93.09,93.12,4100
312,93.13,93.13,93.07,93.09,2703
313,93.12,93.13,93.11,93.13,2300
314,93.06,93.1,93.06,93.1,800
315,93.07,93.07,93.02,93.0599,3413
316,93.08,93.08,93.041,93.08,4151
317,93.06,93.08,93.04,93.08,3432
318,93.06,93.09,93.05,93.05,2201
319,92.99,93.04,92.99,93.04,700
320,93.02,93.02,92.98,92.99,4096
321,93.01,93.02,92.9701,93.02,3600
322,92.99,92.99,92.99,92.99,100
323,92.99,93,92.99,93,1300
324,92.95,92.96,92.95,92.96,800
325,92.943,92.943,92.921,92.93,1000
326,92.93,92.96,92.93,92.95,3600
327,92.96,92.96,92.92,92.92,5211
328,92.99,92.99,92.95,92.96,4889
329,92.99,92.99,92.955,92.98,22898
330,93,93,92.974,92.99,4493
331,93.02,93.02,92.99,93.01,2002
332,93.02,93.05,93.02,93.03,4235
333,93.05,93.05,93.02,93.02,1000
334,93.04,93.09,93.04,93.06,3043
335,92.98,93.03,92.98,93.03,2100
336,93.02,93.05,92.97,92.97,5212
337,92.98,93.01,92.98,93.01,1768
338,93.02,93.02,92.99,92.99,2760
339,93.058,93.058,93.01,93.025,7471
340,93.04,93.06,93.03,93.06,2400
341,93.02,93.03,93.015,93.03,2709
342,93.01,93.02,93.01,93.0172,21400
343,93.02,93.03,93,93,1576
344,93.03,93.05,93.03,93.03,1393
345,93.02,93.04,93.02,93.04,2641
346,93.02,93.04,93.02,93.03,3397
347,93.02,93.03,93.01,93.02,4714
348,92.96,93.01,92.96,93.01,33156
349,92.965,92.99,92.96,92.98,4804
350,92.92,92.97,92.92,92.95,26198
351,92.93,92.93,92.92,92.93,2700
352,92.82,92.93,92.81,92.93,18242
353,92.8,92.81,92.8,92.81,853
354,92.76,92.8053,92.75,92.8,6452
355,92.81,92.83,92.71,92.75,34207
356,92.83,92.85,92.78,92.82,12970
357,92.815,92.84,92.81,92.83,6739
358,92.86,92.86,92.82,92.82,3600
359,92.92,92.92,92.84,92.85,4591
360,92.9,92.96,92.9,92.91,8617
361,92.94,92.94,92.88,92.88,6131
362,92.92,92.98,92.92,92.95,7406
363,92.95,92.95,92.92,92.92,5533
364,92.91,92.949,92.91,92.94,4220
365,92.85,92.91,92.84,92.905,5416
366,92.826,92.85,92.82,92.85,6818
367,92.84,92.84,92.82,92.83,6134
368,92.89,92.92,92.825,92.85,11754
369,92.85,92.9,92.85,92.89,7053
370,92.85,92.86,92.8201,92.855,12547
371,92.89,92.9,92.85,92.85,8502
372,92.85,92.89,92.84,92.89,8752
373,92.85,92.87,92.85,92.86,7073
374,92.9,92.9,92.84,92.85,13504
375,92.88,92.91,92.85,92.88,17726
376,92.86,92.92,92.86,92.89,28154
377,92.86,92.86,92.8301,92.85,9110
378,92.9,92.9024,92.86,92.86,9261
379,92.91,92.91,92.899,92.9,14452
380,92.93,92.945,92.905,92.905,14357
381,92.91,92.93,92.91,92.925,14034
382,92.92,92.92,92.89,92.91,16081
383,92.94,92.95,92.91,92.91,12978
384,92.915,92.945,92.9,92.945,19646
385,92.89,92.92,92.89,92.91,15628
386,92.89,92.9,92.89,92.89,13021
387,92.9,92.91,92.87,92.89,38536
388,92.93,92.95,92.88,92.9,30066
389,92.91,92.96,92.91,92.94,43169
