EOG,EOG Resources,Energy,3,Oil & Gas Exploration & Production,49851575491,3155332
a1504186200,83.82,84,83.82,84,22139
1,84,84,83.91,83.92,2275
2,83.7592,84.06,83.72,84,17415
3,83.67,83.82,83.67,83.73,17300
4,83.75,83.75,83.61,83.66,5950
5,83.905,83.915,83.73,83.75,6001
6,84,84.04,83.82,83.91,3000
7,84.02,84.07,84,84.03,2461
8,84.06,84.09,84.03,84.04,1129
9,84.11,84.11,84.03,84.04,5740
10,84.03,84.14,83.99,84.07,5350
11,84.03,84.05,83.96,84.05,5698
12,84.04,84.1,84.01,84.01,2700
13,84.01,84.05,83.99,84.04,3300
14,83.975,84.05,83.96,84.05,2900
15,83.9749,84.02,83.911,83.94,8182
16,84,84,83.92,83.98,10087
17,83.99,84,83.96,84,3333
18,84,84.02,83.96,83.96,3864
19,84.05,84.055,84,84,5564
20,84.14,84.14,84.07,84.07,21600
21,84.05,84.115,84,84.115,14612
22,84.08,84.14,84.035,84.05,8877
23,84.12,84.12,84.06,84.09,1176
24,83.98,84.1,83.98,84.08,4610
25,84.03,84.05,83.95,83.97,3611
26,84.11,84.11,84.05,84.05,3100
27,84.1,84.13,84.09,84.12,4200
28,84.12,84.13,84.11,84.11,1000
29,84.15,84.18,84.11,84.11,3688
30,84.13,84.2,84.1,84.16,5730
31,84.25,84.25,84.13,84.13,5058
32,84.33,84.39,84.25,84.25,6457
33,84.405,84.47,84.32,84.33,6226
34,84.43,84.48,84.385,84.41,10290
35,84.55,84.55,84.44,84.48,5879
36,84.515,84.56,84.5,84.56,2470
37,84.44,84.51,84.43,84.51,8700
38,84.39,84.44,84.39,84.43,6457
39,84.41,84.42,84.37,84.38,4794
40,84.47,84.47,84.43,84.43,1500
41,84.49,84.49,84.465,84.465,4461
42,84.51,84.55,84.5,84.5,1813
43,84.46,84.53,84.45,84.52,4704
44,84.485,84.485,84.44,84.45,5294
45,84.47,84.49,84.45,84.49,3359
46,84.55,84.55,84.46,84.46,2700
47,84.53,84.5532,84.5,84.5532,3450
48,84.55,84.6,84.54,84.56,2823
49,84.53,84.58,84.5,84.56,2400
50,84.5,84.51,84.48,84.51,3900
51,84.55,84.58,84.52,84.52,2817
52,84.52,84.57,84.51,84.57,1100
53,84.59,84.63,84.52,84.52,5697
54,84.63,84.63,84.58,84.59,6550
55,84.61,84.64,84.61,84.615,4240
56,84.62,84.67,84.61,84.63,3881
57,84.5,84.62,84.49,84.62,3700
58,84.52,84.5229,84.475,84.5,4271
59,84.4546,84.52,84.4546,84.52,2268
60,84.47,84.5,84.46,84.49,13100
61,84.42,84.4725,84.39,84.47,4151
62,84.38,84.41,84.37,84.4,9233
63,84.395,84.43,84.39,84.39,3400
64,84.44,84.46,84.4,84.4,4719
65,84.45,84.47,84.39,84.44,10897
66,84.48,84.48,84.405,84.45,5504
67,84.49,84.5001,84.485,84.49,2300
68,84.41,84.49,84.41,84.48,7241
69,84.44,84.445,84.41,84.42,3706
70,84.5,84.5,84.46,84.46,3498
71,84.53,84.53,84.5,84.5,1747
72,84.56,84.56,84.54,84.54,1200
73,84.52,84.56,84.5,84.56,5991
74,84.58,84.6,84.56,84.56,8830
75,84.56,84.58,84.54,84.55,2300
76,84.53,84.57,84.53,84.56,2919
77,84.57,84.58,84.48,84.525,11578
78,84.519,84.57,84.5,84.56,2600
79,84.6,84.6,84.48,84.53,3403
80,84.57,84.6024,84.57,84.6024,1600
81,84.54,84.54,84.54,84.54,200
82,84.4825,84.54,84.47,84.54,3930
83,84.495,84.5,84.47,84.49,1600
84,84.495,84.52,84.484,84.495,1599
85,84.51,84.51,84.48,84.49,1400
86,84.58,84.58,84.54,84.54,2892
87,84.65,84.65,84.59,84.59,7325
88,84.55,84.65,84.55,84.64,4962
89,84.54,84.575,84.54,84.55,1421
90,84.55,84.55,84.51,84.52,2100
91,84.58,84.58,84.51,84.57,2196
92,84.59,84.65,84.57,84.57,13763
93,84.525,84.61,84.52,84.61,6970
94,84.52,84.53,84.505,84.53,2090
95,84.51,84.51,84.44,84.51,7700
96,84.5,84.55,84.5,84.5,3071
97,84.49,84.5,84.47,84.4955,4925
98,84.48,84.5,84.47,84.48,10000
99,84.45,84.49,84.44,84.48,13639
100,84.47,84.5,84.445,84.445,10300
101,84.51,84.51,84.47,84.47,3400
102,84.52,84.56,84.49,84.49,5412
103,84.5198,84.54,84.515,84.52,2978
104,84.49,84.525,84.49,84.5214,4120
105,84.45,84.51,84.43,84.5,9000
106,84.38,84.44,84.34,84.415,5160
107,84.45,84.46,84.4,84.4,2484
108,84.47,84.485,84.46,84.47,1600
109,84.445,84.47,84.41,84.46,11204
110,84.455,84.47,84.45,84.45,3835
111,84.45,84.46,84.44,84.46,3374
112,84.35,84.455,84.31,84.45,11900
113,84.42,84.42,84.35,84.35,3000
114,84.42,84.445,84.38,84.41,5250
115,84.43,84.44,84.41,84.43,2900
116,84.51,84.51,84.43,84.4319,3812
117,84.53,84.54,84.49,84.5,1074
118,84.59,84.6,84.53,84.53,5472
119,84.6,84.6199,84.587,84.587,3800
120,84.5,84.59,84.4871,84.58,2500
121,84.42,84.52,84.4,84.47,3810
122,84.51,84.51,84.42,84.42,1500
123,84.41,84.514,84.41,84.514,2458
124,84.41,84.44,84.385,84.4,4729
125,84.46,84.48,84.42,84.42,3900
126,84.42,84.47,84.42,84.46,6659
127,84.49,84.49,84.42,84.42,3893
128,84.48,84.48,84.44,84.48,7950
129,84.5,84.51,84.45,84.48,6386
130,84.47,84.5,84.46,84.5,3377
131,84.51,84.52,84.47,84.47,3800
132,84.53,84.53,84.49,84.5,2050
133,84.52,84.54,84.52,84.54,2100
134,84.49,84.52,84.49,84.5,1700
135,84.65,84.65,84.51,84.51,4516
136,84.64,84.66,84.6232,84.6232,3072
137,84.64,84.64,84.6,84.639,3833
138,84.68,84.68,84.67,84.67,500
139,84.67,84.68,84.66,84.67,2734
140,84.64,84.67,84.64,84.67,2300
141,84.65,84.65,84.59,84.65,4150
142,84.62,84.64,84.62,84.64,1713
143,84.56,84.61,84.56,84.59,800
144,84.58,84.58,84.52,84.55,1650
145,84.61,84.63,84.59,84.59,1732
146,84.57,84.61,84.57,84.61,1400
147,84.506,84.56,84.47,84.56,2000
148,84.55,84.57,84.51,84.51,1700
149,84.57,84.6,84.55,84.55,1236
150,84.57,84.57,84.57,84.57,100
151,84.6,84.6,84.5571,84.5571,1075
152,84.63,84.63,84.59,84.59,600
153,84.61,84.62,84.61,84.62,1200
154,84.61,84.63,84.6,84.62,2191
155,84.59,84.61,84.58,84.61,900
156,84.6,84.61,84.6,84.6,545
157,84.59,84.59,84.56,84.59,1013
158,84.58,84.58,84.52,84.58,3231
159,84.57,84.57,84.55,84.555,1300
160,84.56,84.57,84.55,84.5698,1312
161,84.54,84.59,84.54,84.57,8600
162,84.61,84.62,84.5547,84.5571,5864
163,84.62,84.63,84.6,84.6174,1750
164,84.6491,84.6535,84.61,84.6299,5227
165,84.6164,84.64,84.61,84.64,2812
166,84.58,84.61,84.58,84.6,1900
167,84.58,84.5848,84.56,84.58,1682
168,84.61,84.61,84.58,84.58,2364
169,84.58,84.62,84.58,84.61,1800
170,84.54,84.6,84.54,84.6,2700
171,84.5399,84.54,84.5,84.54,2967
172,84.57,84.57,84.5,84.52,1700
173,84.56,84.573,84.56,84.573,1100
174,84.576,84.59,84.57,84.59,3200
175,84.59,84.6,84.57,84.59,2500
176,84.54,84.6,84.54,84.59,3900
177,84.5103,84.59,84.5,84.54,8095
178,84.5,84.52,84.485,84.52,7090
179,84.51,84.5102,84.49,84.5,2920
180,84.51,84.52,84.51,84.5177,2300
181,84.495,84.55,84.495,84.53,4100
182,84.485,84.51,84.47,84.51,11467
183,84.5,84.5,84.47,84.47,5873
184,84.515,84.52,84.49,84.49,5646
185,84.54,84.54,84.51,84.52,3000
186,84.525,84.54,84.525,84.54,1815
187,84.52,84.54,84.52,84.53,500
188,84.54,84.54,84.53,84.54,500
189,84.57,84.57,84.54,84.55,2475
190,84.6,84.6,84.58,84.58,400
191,84.62,84.62,84.62,84.62,700
192,84.6599,84.66,84.59,84.59,4643
193,84.63,84.64,84.6,84.64,2225
194,84.61,84.65,84.6,84.63,2275
195,84.61,84.641,84.61,84.61,2430
196,84.58,84.61,84.58,84.61,3803
197,84.59,84.59,84.57,84.57,1375
198,84.6,84.6,84.56,84.58,1776
199,84.57,84.6,84.56,84.6,2502
200,84.59,84.59,84.56,84.5751,1050
201,84.59,84.59,84.57,84.57,1500
202,84.59,84.59,84.59,84.59,300
203,84.62,84.62,84.58,84.6,3080
204,84.66,84.66,84.61,84.61,9014
205,84.68,84.68,84.65,84.65,4087
206,84.7,84.72,84.68,84.68,2747
207,84.75,84.75,84.735,84.74,1100
208,84.75,84.75,84.75,84.75,500
209,84.75,84.75,84.735,84.75,1181
210,84.78,84.78,84.71,84.72,5978
211,84.79,84.79,84.75,84.77,1000
212,84.81,84.81,84.77,84.78,1971
213,84.79,84.81,84.75,84.81,4300
214,84.77,84.77,84.77,84.77,100
215,84.76,84.79,84.75,84.79,3673
216,84.78,84.78,84.75,84.75,3500
217,84.74,84.76,84.73,84.76,15601
218,84.74,84.74,84.7,84.73,1900
219,84.74,84.74,84.725,84.725,375
220,84.75,84.76,84.71,84.71,1453
221,84.76,84.77,84.75,84.75,1918
222,84.77,84.77,84.75,84.75,952
223,84.79,84.8,84.78,84.78,1618
224,84.77,84.79,84.77,84.77,1200
225,84.7725,84.81,84.77,84.78,33893
226,84.74,84.79,84.74,84.79,7407
227,84.82,84.82,84.73,84.74,8203
228,84.79,84.815,84.78,84.81,11500
229,84.82,84.83,84.79,84.8,6300
230,84.8,84.82,84.8,84.82,500
231,84.81,84.83,84.79,84.79,15957
232,84.85,84.85,84.8,84.8,5966
233,84.85,84.85,84.82,84.8276,3735
234,84.89,84.89,84.83,84.85,21054
235,84.87,84.89,84.84,84.89,10600
236,84.86,84.88,84.85,84.86,10550
237,84.87,84.875,84.86,84.86,1700
238,84.82,84.875,84.82,84.87,11005
239,84.83,84.86,84.82,84.825,7300
240,84.84,84.845,84.82,84.835,3900
241,84.84,84.85,84.84,84.85,5666
242,84.86,84.86,84.84,84.85,7000
243,84.88,84.88,84.85,84.86,6870
244,84.92,84.92,84.87,84.87,10532
245,84.9,84.96,84.9,84.92,42568
246,84.82,84.9,84.75,84.9,20880
247,84.82,84.82,84.795,84.82,5592
248,84.82,84.83,84.81,84.82,6126
249,84.84,84.84,84.8,84.815,13520
250,84.825,84.84,84.8,84.835,7799
251,84.85,84.85,84.823,84.84,6574
252,84.855,84.86,84.84,84.845,3663
253,84.88,84.88,84.86,84.86,1166
254,84.87,84.88,84.86,84.86,4888
255,84.95,84.97,84.87,84.87,5475
256,84.98,85,84.95,84.96,8850
257,85,85.03,84.98,84.98,7125
258,85,85.02,84.99,85.01,4000
259,85,85,84.98,85,5000
260,84.98,85.01,84.96,85,3000
261,84.97,85.01,84.9507,85,5988
262,84.95,84.965,84.95,84.96,7999
263,84.96,84.96,84.93,84.94,4523
264,84.95,84.97,84.94,84.96,6551
265,84.98,84.98,84.94,84.95,3822
266,84.91,84.97,84.9,84.95,9211
267,84.9,84.94,84.9,84.915,18780
268,84.94,84.94,84.885,84.89,12068
269,84.97,84.98,84.92,84.94,20252
270,84.98,84.99,84.95,84.96,8773
271,84.95,84.98,84.94,84.97,31611
272,84.96,84.96,84.925,84.95,4200
273,84.945,84.97,84.94,84.95,7573
274,84.931,84.96,84.931,84.945,15354
275,84.85,84.94,84.85,84.94,6700
276,84.81,84.88,84.81,84.85,10900
277,84.87,84.88,84.82,84.82,15717
278,84.88,84.88,84.84,84.88,8601
279,84.85,84.875,84.85,84.86,10042
280,84.78,84.88,84.7401,84.855,23234
281,84.8,84.8101,84.79,84.8,7507
282,84.78,84.805,84.765,84.8,5947
283,84.79,84.8,84.77,84.78,6738
284,84.835,84.84,84.785,84.785,6883
285,84.88,84.89,84.83,84.83,17223
286,84.9,84.9,84.85,84.86,7624
287,84.91,84.91,84.87,84.88,7669
288,84.91,84.92,84.9,84.915,10926
289,84.88,84.905,84.8748,84.9043,11016
290,84.83,84.89,84.83,84.88,13022
291,84.8,84.8545,84.8,84.835,6236
292,84.86,84.87,84.81,84.82,6145
293,84.91,84.93,84.85,84.85,12108
294,84.9,84.94,84.89,84.905,10847
295,84.92,84.95,84.9,84.905,10763
296,84.96,84.98,84.92,84.92,16712
297,85.07,85.07,84.97,84.97,16242
298,85.05,85.12,85.0101,85.075,18084
299,85.03,85.05,85.01,85.03,6149
300,85,85.04,85,85.02,3100
301,85,85.02,84.98,85,2831
302,84.98,85,84.98,85,6100
303,85,85,84.98,84.98,2760
304,85,85,84.97,84.98,23286
305,84.98,85,84.98,85,13237
306,84.975,84.99,84.97,84.98,15835
307,85.02,85.12,84.955,84.975,31813
308,84.97,85,84.951,85,24164
309,84.93,84.98,84.93,84.98,2060
310,84.91,84.94,84.91,84.93,6021
311,84.795,84.9,84.79,84.9,11000
312,84.85,84.855,84.79,84.795,11358
313,84.92,84.93,84.84,84.85,9529
314,84.93,84.935,84.91,84.915,3407
315,84.95,84.965,84.9298,84.9298,3212
316,84.9,84.96,84.87,84.93,7755
317,84.91,84.91,84.865,84.9,49375
318,85.01,85.01,84.91,84.91,9145
319,85,85.02,84.96,85.01,5682
320,84.97,84.99,84.96,84.99,600
321,84.96,84.98,84.94,84.97,6601
322,84.96,84.97,84.95,84.96,3000
323,84.98,84.99,84.97,84.97,5200
324,85.02,85.02,84.97,84.98,3700
325,85.005,85.03,85,85.02,4030
326,84.94,85.01,84.94,85,5850
327,84.975,84.98,84.9453,84.9453,6484
328,85.01,85.0225,84.97,84.97,4526
329,85.01,85.02,85,85,800
330,85.06,85.06,85.01,85.01,5800
331,85.02,85.07,85.02,85.07,4462
332,85.02,85.03,84.9867,85,4169
333,85.08,85.08,85.01,85.01,4700
334,85.03,85.07,85.03,85.07,4001
335,85.05,85.05,85.02,85.0232,1326
336,85.07,85.08,85.05,85.05,3571
337,85.06,85.08,85.0501,85.06,4205
338,85.06,85.08,85.05,85.05,8177
339,85.1,85.1,85.065,85.065,5552
340,85.1,85.1,85.08,85.0839,9007
341,85.12,85.15,85.09,85.09,53109
342,85.065,85.11,85.06,85.11,21633
343,85.13,85.13,85.07,85.07,10677
344,85.11,85.18,85.08,85.13,43818
345,85.0901,85.13,85.0901,85.12,1623
346,85.09,85.1,85.07,85.09,10869
347,85.11,85.11,85.09,85.09,4985
348,85.12,85.12,85.1,85.11,1767
349,85.105,85.13,85.1,85.12,7617
350,85.12,85.125,85.1,85.105,13531
351,85.07,85.115,85.06,85.11,5765
352,85.05,85.0625,85.02,85.06,13939
353,85.03,85.06,85.02,85.05,6425
354,85.005,85.025,85,85.02,3464
355,85.03,85.05,85,85,7002
356,85.04,85.04,85.01,85.035,7199
357,85.045,85.05,85.04,85.04,4862
358,85.04,85.05,85.03,85.04,10585
359,85.05,85.06,85.0301,85.05,11414
360,85.05,85.05,85.04,85.05,4445
361,85.06,85.06,85.04,85.045,13704
362,85.1,85.105,85.06,85.06,16161
363,85.13,85.13,85.09,85.095,21175
364,85.1,85.14,85.095,85.13,30216
365,85.105,85.11,85.09,85.105,25645
366,85.11,85.115,85.1,85.105,21571
367,85.085,85.11,85.085,85.1,33077
368,85.065,85.08,85.06,85.08,17071
369,85.12,85.12,85.06,85.07,17355
370,85.09,85.11,85.07,85.11,21362
371,85.1,85.105,85.07,85.09,27295
372,85.075,85.11,85.07,85.1,22015
373,85.065,85.09,85.06,85.075,9913
374,85.07,85.08,85.06,85.065,18698
375,85.05,85.1,85.01,85.08,64174
376,85.03,85.055,84.965,85.04,31710
377,85.005,85.035,85,85.03,16592
378,85.08,85.1,85,85.005,22891
379,85.065,85.08,85.05,85.08,24163
380,85.06,85.08,85.055,85.07,48293
381,85.05,85.06,85.04,85.06,36532
382,85.04,85.06,85.04,85.05,31378
383,85.035,85.06,85.03,85.05,18445
384,84.93,85.035,84.93,85.035,25584
385,84.93,84.97,84.93,84.935,33105
386,84.85,84.935,84.85,84.92,27025
387,84.85,84.89,84.83,84.855,30640
388,84.85,84.88,84.83,84.86,34173
389,84.81,84.86,84.8,84.845,50262
390,84.94,85.02,84.79,84.81,222481
