PPG,PPG Industries,Materials,8,Specialty Chemicals,26755974640,1588184
a1504186200,104.22,104.22,104.22,104.22,9575
1,103.97,103.97,103.97,103.97,100
3,104.14,104.19,104.14,104.156,1391
4,104.13,104.225,104.11,104.14,1800
5,104.01,104.11,104.01,104.05,1300
6,104.19,104.19,104.04,104.06,1900
7,104.235,104.235,104.235,104.235,100
8,104.465,104.465,104.35,104.35,1000
9,104.4188,104.4188,104.4188,104.4188,100
10,104.4,104.47,104.4,104.47,500
11,104.37,104.4,104.36,104.4,1000
12,104.38,104.38,104.32,104.35,1501
13,104.44,104.44,104.35,104.35,531
14,104.44,104.45,104.43,104.43,800
15,104.36,104.44,104.34,104.44,1400
16,104.33,104.39,104.29,104.36,2775
17,104.27,104.41,104.27,104.39,2436
18,104.29,104.29,104.29,104.29,100
19,104.17,104.4,104.15,104.35,3454
21,104.15,104.2653,104.15,104.2653,1900
22,104.14,104.25,104.13,104.2,2839
25,104.15,104.15,104.15,104.15,100
26,104.14,104.16,104.08,104.15,3159
27,104.11,104.15,104.11,104.15,500
28,104.12,104.18,104.09,104.13,2300
29,104.2828,104.2828,104.2,104.2,640
30,104.29,104.32,104.24,104.28,600
31,104.18,104.27,104.15,104.27,2000
32,104.22,104.26,104.18,104.23,3700
33,104.17,104.21,104.17,104.21,1329
34,104.08,104.16,104.08,104.16,1600
35,104.13,104.14,104.08,104.08,1300
36,104.13,104.1556,104.13,104.1556,264
37,104.25,104.28,104.14,104.19,3400
38,104.27,104.27,104.27,104.27,100
39,104.27,104.33,104.27,104.33,2599
40,104.3,104.34,104.27,104.27,1100
41,104.34,104.38,104.34,104.38,1500
44,104.3625,104.3625,104.33,104.35,1346
46,104.25,104.37,104.25,104.37,2782
47,104.28,104.31,104.26,104.26,1820
48,104.35,104.35,104.27,104.3,700
49,104.32,104.38,104.32,104.376,2394
50,104.29,104.32,104.29,104.32,1300
51,104.28,104.28,104.28,104.28,100
52,104.42,104.42,104.295,104.295,1302
53,104.385,104.385,104.385,104.385,686
54,104.34,104.36,104.33,104.36,1977
55,104.32,104.33,104.32,104.33,500
56,104.3228,104.3332,104.31,104.31,976
57,104.32,104.32,104.29,104.31,1800
58,104.34,104.34,104.32,104.32,900
59,104.36,104.36,104.33,104.34,1500
60,104.405,104.405,104.38,104.38,300
61,104.4,104.415,104.4,104.415,200
62,104.37,104.43,104.37,104.43,2567
63,104.34,104.36,104.34,104.36,500
64,104.3137,104.32,104.28,104.32,25680
65,104.2952,104.3,104.28,104.295,1233
66,104.36,104.36,104.28,104.3,2200
68,104.3,104.36,104.3,104.345,2600
69,104.26,104.3,104.26,104.3,1000
70,104.28,104.28,104.21,104.22,1600
71,104.26,104.29,104.26,104.29,1000
72,104.215,104.26,104.21,104.26,28700
73,104.26,104.26,104.22,104.22,1007
74,104.29,104.29,104.26,104.26,1185
75,104.29,104.29,104.29,104.29,700
76,104.27,104.28,104.27,104.28,998
77,104.29,104.29,104.27,104.28,2300
78,104.18,104.27,104.18,104.27,1500
79,104.17,104.17,104.17,104.17,100
80,104.19,104.19,104.18,104.18,300
81,104.22,104.22,104.19,104.19,3800
82,104.255,104.26,104.215,104.215,841
83,104.25,104.25,104.25,104.25,100
84,104.255,104.26,104.24,104.255,2400
85,104.24,104.25,104.23,104.25,1700
86,104.22,104.25,104.22,104.25,1500
88,104.2001,104.22,104.19,104.21,3944
89,104.15,104.2,104.15,104.2,1800
90,104.14,104.16,104.14,104.15,2425
91,104.115,104.1599,104.1,104.13,1750
92,104.11,104.12,104.1,104.1,1125
93,104.19,104.19,104.1,104.1,2300
94,104.21,104.21,104.16,104.16,3308
95,104.2,104.215,104.19,104.215,1344
96,104.19,104.205,104.19,104.2,400
97,104.2,104.22,104.2,104.22,858
98,104.235,104.245,104.21,104.21,2805
99,104.21,104.23,104.21,104.23,1200
100,104.24,104.24,104.215,104.22,1900
101,104.19,104.21,104.19,104.21,2800
102,104.2,104.2,104.18,104.19,1000
103,104.215,104.215,104.215,104.215,200
104,104.23,104.23,104.22,104.22,900
105,104.23,104.23,104.225,104.23,701
106,104.24,104.25,104.22,104.24,4717
107,104.3,104.3,104.2272,104.235,2158
108,104.275,104.29,104.27,104.29,2948
109,104.22,104.26,104.22,104.26,900
110,104.22,104.22,104.22,104.22,100
111,104.27,104.27,104.22,104.22,3055
112,104.305,104.31,104.26,104.27,2500
113,104.31,104.35,104.3,104.31,5410
114,104.345,104.345,104.31,104.31,900
115,104.345,104.345,104.345,104.345,300
116,104.33,104.34,104.33,104.34,1046
117,104.2736,104.33,104.2736,104.33,1723
118,104.26,104.26,104.26,104.26,100
119,104.25,104.3,104.25,104.28,3037
120,104.2,104.25,104.17,104.25,10710
121,104.28,104.28,104.185,104.2,7200
122,104.25,104.28,104.235,104.26,5300
123,104.21,104.25,104.17,104.22,7938
124,104.285,104.305,104.205,104.205,2900
125,104.32,104.33,104.28,104.29,4300
126,104.27,104.35,104.22,104.34,3400
127,104.31,104.31,104.26,104.29,800
128,104.315,104.33,104.315,104.33,200
129,104.33,104.35,104.325,104.325,4328
130,104.39,104.39,104.33,104.335,2841
131,104.4,104.4,104.375,104.375,300
132,104.38,104.4,104.38,104.4,1700
133,104.465,104.465,104.4,104.4,1392
134,104.41,104.45,104.41,104.45,2006
135,104.385,104.42,104.38,104.4,5661
136,104.41,104.41,104.39,104.39,800
137,104.42,104.43,104.41,104.43,650
138,104.42,104.42,104.411,104.411,33200
139,104.39,104.43,104.39,104.42,28411
140,104.37,104.39,104.35,104.38,3760
141,104.345,104.39,104.345,104.37,600
142,104.32,104.33,104.32,104.33,600
143,104.31,104.325,104.31,104.32,700
145,104.33,104.36,104.325,104.325,1500
146,104.34,104.35,104.34,104.34,1000
147,104.3,104.35,104.28,104.33,6224
148,104.23,104.29,104.23,104.29,1200
149,104.21,104.27,104.21,104.26,6717
150,104.23,104.24,104.225,104.225,700
151,104.205,104.23,104.17,104.23,2410
152,104.23,104.23,104.22,104.23,966
153,104.2,104.2,104.2,104.2,100
154,104.18,104.22,104.16,104.2,1500
155,104.145,104.19,104.14,104.16,3940
156,104.16,104.21,104.145,104.16,2751
157,104.14,104.16,104.14,104.16,800
158,104.11,104.12,104.105,104.12,2000
159,104.08,104.11,104.08,104.1,800
160,104.06,104.07,104.04,104.05,2360
161,104.01,104.05,104.01,104.05,800
162,104,104.03,103.99,104.02,3544
163,103.92,104,103.91,103.98,5445
164,103.915,103.92,103.9,103.91,1758
165,103.848,103.9197,103.84,103.915,2835
166,103.97,103.97,103.88,103.88,1029
167,103.975,103.975,103.94,103.97,1804
168,103.96,103.96,103.96,103.96,100
169,103.97,103.98,103.96,103.97,1482
170,103.97,103.985,103.96,103.97,901
171,103.9696,103.9696,103.95,103.96,1375
172,103.99,103.99,103.975,103.98,1223
173,104.02,104.04,104.01,104.01,500
174,104.01,104.03,104.01,104.02,1300
175,104,104.01,104,104.01,2443
176,104,104.02,104,104.01,2074
177,103.97,104,103.97,104,455
178,104.01,104.01,103.9972,103.9972,1542
179,104,104.01,104,104.01,800
180,104.025,104.03,104,104,1838
181,104.02,104.02,104,104.02,1400
182,104.01,104.01,103.99,104.01,1200
183,104,104.01,104,104,700
184,104.03,104.03,104.02,104.03,601
185,104.03,104.03,104.03,104.03,200
186,104.03,104.03,104.025,104.03,500
187,104.05,104.05,104.0201,104.0201,4876
188,104.07,104.07,104.07,104.07,100
189,104.13,104.14,104.09,104.09,1000
190,104.15,104.15,104.135,104.14,300
191,104.16,104.18,104.15,104.15,1400
192,104.14,104.17,104.14,104.17,1400
193,104.13,104.14,104.13,104.14,200
194,104.13,104.13,104.1,104.13,1700
195,104.125,104.125,104.125,104.125,100
196,104.12,104.14,104.11,104.11,800
197,104.13,104.14,104.13,104.14,1500
198,104.13,104.13,104.125,104.125,800
199,104.1214,104.1214,104.11,104.11,400
200,104.121,104.13,104.11,104.13,1850
202,104.11,104.12,104.11,104.12,400
203,104.13,104.14,104.11,104.11,400
204,104.14,104.14,104.12,104.12,200
205,104.11,104.14,104.105,104.13,4409
206,104.12,104.12,104.11,104.12,2400
207,104.13,104.13,104.12,104.12,400
208,104.145,104.145,104.145,104.145,100
209,104.14,104.14,104.14,104.14,800
210,104.12,104.13,104.11,104.13,3000
211,104.14,104.14,104.11,104.12,2332
212,104.13,104.13,104.13,104.13,100
213,104.13,104.13,104.12,104.13,1342
214,104.13,104.13,104.13,104.13,1306
215,104.13,104.135,104.13,104.135,500
216,104.12,104.13,104.12,104.12,1200
217,104.12,104.12,104.11,104.12,1300
219,104.16,104.16,104.11,104.13,5102
220,104.15,104.15,104.15,104.15,100
221,104.1458,104.1458,104.1458,104.1458,200
222,104.14,104.14,104.14,104.14,400
223,104.13,104.1475,104.13,104.145,1787
224,104.12,104.12,104.12,104.12,100
225,104.12,104.12,104.12,104.12,200
226,104.1,104.12,104.1,104.12,3052
227,104.105,104.12,104.105,104.105,700
228,104.1,104.11,104.09,104.09,1000
229,104.115,104.12,104.1,104.1,2902
230,104.125,104.125,104.11,104.11,391
231,104.13,104.14,104.11,104.11,400
232,104.14,104.14,104.13,104.13,700
233,104.15,104.15,104.15,104.15,100
234,104.165,104.165,104.15,104.15,1366
235,104.14,104.16,104.12,104.16,1500
236,104.1439,104.1439,104.1368,104.1368,1050
237,104.13,104.14,104.13,104.14,300
238,104.13,104.13,104.12,104.13,900
239,104.11,104.13,104.09,104.115,4049
240,104.11,104.11,104.11,104.11,500
241,104.1,104.11,104.1,104.1,500
242,104.1,104.1,104.08,104.08,1611
243,104.09,104.115,104.09,104.115,600
244,104.09,104.09,104.09,104.09,100
245,104.11,104.11,104.1,104.1,1100
247,104.12,104.15,104.12,104.13,2350
248,104.1367,104.1367,104.12,104.13,700
249,104.12,104.14,104.12,104.135,4062
250,104.11,104.12,104.11,104.12,1783
251,104.11,104.115,104.11,104.11,300
252,104.1,104.1,104.1,104.1,200
253,104.05,104.1,104.05,104.1,5798
254,104.025,104.05,104.01,104.05,700
255,104.05,104.06,104.025,104.04,6558
256,104.03,104.05,104.03,104.05,1000
257,104.03,104.04,104.03,104.04,300
258,104.04,104.05,104.03,104.03,7834
259,104,104.03,103.98,104.03,3500
260,104.01,104.02,104.01,104.01,1232
261,103.98,104,103.98,104,500
262,104.005,104.01,103.98,103.99,1952
264,103.97,104.0015,103.96,104.0015,1563
265,103.95,103.96,103.95,103.96,300
266,103.93,103.95,103.92,103.95,1510
267,103.92,103.93,103.92,103.93,800
268,103.95,103.95,103.92,103.92,3558
269,103.95,103.96,103.945,103.95,3100
270,103.9501,103.96,103.95,103.95,4963
271,103.99,103.99,103.95,103.95,10565
272,104.015,104.015,103.98,103.98,1603
273,104,104.02,103.995,104.02,3200
274,103.96,104.01,103.95,104.01,7126
275,103.94,103.97,103.94,103.95,1890
276,103.93,103.969,103.93,103.969,1330
277,103.915,103.93,103.89,103.92,6861
279,103.82,103.91,103.82,103.91,2300
280,103.89,103.89,103.84,103.86,3639
281,103.915,103.9436,103.89,103.89,1800
282,103.91,103.915,103.91,103.91,800
283,103.89,103.92,103.89,103.9,2208
284,103.9,103.91,103.89,103.895,1900
285,103.91,103.91,103.9014,103.9014,1650
286,103.96,103.97,103.91,103.91,3171
287,103.95,103.96,103.95,103.96,200
288,103.955,103.96,103.95,103.96,600
289,103.99,103.99,103.96,103.96,800
290,103.97,104,103.97,103.99,2932
291,103.94,103.98,103.94,103.98,2400
292,103.92,103.94,103.915,103.915,1000
293,103.9118,103.93,103.91,103.93,2592
294,103.95,103.95,103.915,103.915,719
295,103.9,103.95,103.89,103.95,10152
296,103.88,103.9,103.875,103.9,900
297,103.91,103.91,103.87,103.87,2247
298,103.9,103.915,103.89,103.9,3915
299,103.92,103.93,103.91,103.93,1100
300,103.955,103.955,103.9,103.9,750
301,103.96,103.97,103.94,103.94,500
302,103.98,104,103.98,103.99,1086
303,104,104.005,103.98,103.98,1600
304,103.99,104,103.99,104,700
305,103.99,104.02,103.99,104.02,800
306,103.99,103.99,103.98,103.99,2000
307,104.02,104.02,103.99,103.99,4106
308,104.03,104.05,104.015,104.015,2191
309,104.01,104.015,104.005,104.01,1500
310,104.025,104.025,104.01,104.01,500
311,104.03,104.0434,104.025,104.025,1773
312,104.035,104.035,104.03,104.03,546
313,104.02,104.03,104.02,104.03,1033
314,104.02,104.03,104.02,104.025,1946
315,104.02,104.025,104.02,104.0232,450
316,104.02,104.03,104.02,104.0227,700
317,104.025,104.03,104.02,104.02,1247
318,104.03,104.04,104.01,104.02,9314
319,104.09,104.09,104.025,104.03,1500
320,104.105,104.11,104.09,104.09,900
321,104.11,104.11,104.11,104.11,1100
322,104.15,104.15,104.11,104.11,1100
323,104.18,104.18,104.16,104.16,600
324,104.19,104.19,104.19,104.19,400
325,104.19,104.2,104.18,104.2,1900
326,104.17,104.185,104.17,104.185,2226
327,104.225,104.225,104.17,104.17,2100
328,104.21,104.23,104.21,104.23,1700
329,104.22,104.23,104.21,104.21,1100
330,104.25,104.25,104.225,104.225,900
331,104.2453,104.25,104.24,104.24,900
332,104.275,104.275,104.24,104.24,2400
333,104.3,104.3,104.27,104.28,760
334,104.315,104.315,104.3,104.305,800
335,104.315,104.315,104.31,104.31,400
336,104.28,104.32,104.28,104.32,5351
337,104.29,104.29,104.2601,104.27,5704
338,104.3,104.3,104.28,104.29,1443
339,104.29,104.295,104.29,104.295,1796
340,104.24,104.295,104.24,104.29,2900
341,104.24,104.245,104.24,104.245,770
342,104.21,104.24,104.21,104.24,2447
343,104.19,104.205,104.19,104.19,1153
344,104.16,104.185,104.16,104.18,2879
345,104.195,104.195,104.165,104.17,4938
346,104.24,104.24,104.19,104.19,1800
347,104.25,104.265,104.23,104.24,4483
348,104.27,104.27,104.25,104.25,1265
349,104.3,104.3,104.27,104.27,1209
350,104.305,104.31,104.3,104.3,1400
351,104.305,104.31,104.3,104.305,1300
352,104.26,104.3,104.25,104.3,6600
353,104.24,104.26,104.23,104.25,2453
354,104.25,104.25,104.22,104.23,1907
355,104.26,104.26,104.24,104.24,900
356,104.26,104.26,104.255,104.255,600
357,104.26,104.26,104.255,104.26,1400
358,104.25,104.26,104.25,104.255,3500
359,104.3,104.3,104.26,104.26,7093
360,104.29,104.305,104.29,104.29,5597
361,104.31,104.32,104.295,104.295,29287
362,104.36,104.38,104.31,104.31,3600
363,104.44,104.44,104.369,104.37,2500
364,104.44,104.44,104.42,104.43,3214
365,104.425,104.44,104.42,104.44,4061
366,104.43,104.43,104.41,104.415,1502
367,104.44,104.45,104.43,104.44,2100
368,104.435,104.44,104.42,104.435,6042
369,104.425,104.44,104.42,104.43,4460
370,104.4,104.43,104.4,104.425,5693
371,104.4,104.42,104.395,104.41,4399
372,104.39,104.4,104.39,104.39,3813
373,104.385,104.39,104.38,104.39,4133
374,104.39,104.39,104.385,104.385,1800
375,104.405,104.435,104.38,104.39,23776
376,104.39,104.435,104.38,104.39,13810
377,104.405,104.405,104.38,104.39,4335
378,104.425,104.43,104.405,104.405,2211
379,104.395,104.425,104.39,104.42,6567
380,104.405,104.41,104.39,104.395,7417
381,104.355,104.405,104.35,104.4,10255
382,104.27,104.36,104.27,104.35,13838
383,104.25,104.265,104.24,104.26,11828
384,104.23,104.25,104.23,104.24,16900
385,104.18,104.24,104.17,104.22,10449
386,104.23,104.23,104.18,104.18,12246
387,104.26,104.3,104.23,104.24,14786
388,104.26,104.3,104.255,104.255,22004
389,104.18,104.27,104.17,104.26,23851
390,104.21,104.25,104.16,104.17,35398
