EOG,EOG Resources,Energy,3,Oil & Gas Exploration & Production,52868099006,2846799
a1493818200,91.53,91.53,91.53,91.53,22840
1,91.635,91.72,91.32,91.65,9245
2,91.73,91.78,91.6,91.61,9815
3,91.71,91.8,91.59,91.71,37357
4,91.7,91.72,91.6,91.68,17503
5,91.58,91.71,91.58,91.67,20733
6,91.67,91.79,91.64,91.64,20190
7,91.49,91.77,91.49,91.71,31336
8,91.64,91.695,91.49,91.5,12467
9,91.64,91.72,91.64,91.66,3620
10,91.89,91.94,91.68,91.68,13143
11,91.925,91.954,91.83,91.89,16574
12,92.03,92.03,91.95,91.95,17576
13,91.99,92.07,91.94,92.05,15179
14,92.09,92.09,91.99,92.01,3871
15,92.16,92.16,92.02,92.05,14801
16,92.28,92.28,92.14,92.15,15659
17,92.3,92.31,92.23,92.27,9173
18,92.39,92.4025,92.32,92.32,5507
19,92.32,92.4645,92.32,92.39,11865
20,92.23,92.31,92.19,92.31,2278
21,92.13,92.22,92.11,92.19,9239
22,92.28,92.29,92.14,92.14,9437
23,92.25,92.2925,92.19,92.29,13711
24,92.335,92.34,92.22,92.25,18700
25,92.25,92.36,92.25,92.335,5250
26,92.25,92.25,92.12,92.23,6482
27,92.18,92.28,92.18,92.28,7600
28,92.2925,92.3,92.16,92.16,3300
29,92.3301,92.34,92.3066,92.3066,9026
30,92.3,92.34,92.26,92.34,4730
31,92.305,92.32,92.22,92.27,16108
32,92.28,92.32,92.23,92.32,6792
33,92.21,92.3,92.18,92.3,16600
34,92.28,92.28,92.19,92.22,8450
35,92.26,92.32,92.23,92.315,6436
36,92.21,92.24,92.19,92.24,1900
37,92.17,92.23,92.17,92.22,3100
38,92.15,92.19,92.125,92.19,4298
39,92.22,92.23,92.14,92.14,2400
40,92.15,92.24,92.08,92.24,4418
41,92.13,92.17,92.06,92.165,7607
42,92.15,92.15,92.06,92.11,6347
43,92.25,92.25,92.16,92.16,13416
44,92.25,92.27,92.2158,92.25,17900
45,92.4,92.41,92.21,92.21,32378
46,92.41,92.45,92.37,92.42,11700
47,92.43,92.43,92.37,92.37,8115
48,92.545,92.57,92.44,92.45,17629
49,92.62,92.67,92.53,92.56,16760
50,92.61,92.64,92.59,92.625,7531
51,92.58,92.65,92.56,92.63,36117
52,92.67,92.69,92.55,92.59,29223
53,92.71,92.75,92.6804,92.69,13320
54,92.676,92.69,92.57,92.67,10779
55,92.455,92.645,92.455,92.63,5752
56,92.47,92.49,92.425,92.47,2673
57,92.5105,92.57,92.49,92.52,13264
58,92.46,92.515,92.455,92.48,9101
59,92.53,92.61,92.48,92.48,4412
60,92.33,92.59,92.13,92.56,14392
61,91.99,92.26,91.85,92.14,20113
62,92.16,92.2,91.94,91.975,10438
63,91.94,92.18,91.94,92.18,12776
64,91.9212,91.98,91.91,91.92,3475
65,91.91,91.96,91.85,91.92,14639
66,91.92,92.0025,91.88,91.92,9677
67,91.9,92.04,91.87,91.94,14238
68,91.89,91.9,91.84,91.87,2743
69,91.86,91.88,91.76,91.88,26300
70,91.8,91.845,91.77,91.84,14748
71,91.77,91.82,91.77,91.81,9200
72,91.61,91.84,91.61,91.81,3699
73,91.49,91.64,91.49,91.64,8100
74,91.4951,91.505,91.44,91.44,4568
75,91.59,91.59,91.5,91.53,1600
76,91.58,91.68,91.56,91.56,6055
77,91.6,91.64,91.58,91.61,3492
78,91.5,91.605,91.44,91.59,6275
79,91.44,91.51,91.44,91.49,4950
80,91.4,91.44,91.3084,91.44,9448
81,91.3101,91.4,91.3001,91.4,4443
82,91.2,91.31,91.2,91.31,8161
83,91.14,91.21,91.12,91.19,9000
84,91.12,91.148,91.09,91.14,4712
85,91.18,91.22,91.13,91.14,5600
86,91.2619,91.29,91.2,91.2,4100
87,91.29,91.32,91.24,91.28,7670
88,91.24,91.31,91.2,91.3,5300
89,91.24,91.24,91.18,91.22,6508
90,91.34,91.37,91.24,91.24,13879
91,91.67,91.67,91.36,91.37,15431
92,91.5301,91.645,91.51,91.63,13763
93,91.53,91.59,91.49,91.58,5525
94,91.37,91.526,91.36,91.5,9369
95,91.425,91.43,91.36,91.385,4700
96,91.36,91.44,91.32,91.44,4676
97,91.46,91.5,91.365,91.38,11948
98,91.56,91.56,91.44,91.46,6760
99,91.63,91.63,91.48,91.54,9757
100,91.62,91.67,91.58,91.61,10509
101,91.75,91.75,91.64,91.64,6290
102,91.68,91.74,91.67,91.72,5413
103,91.7,91.73,91.69,91.7,2327
104,91.73,91.83,91.7,91.73,9063
105,91.76,91.83,91.76,91.76,2845
106,91.75,91.81,91.75,91.77,2111
107,91.645,91.75,91.645,91.75,3400
108,91.74,91.74,91.64,91.66,4900
109,91.73,91.77,91.72,91.74,3894
110,91.67,91.75,91.67,91.74,3618
111,91.6,91.7,91.6,91.67,3945
112,91.69,91.69,91.62,91.64,2900
113,91.61,91.72,91.61,91.68,5200
114,91.68,91.68,91.62,91.6211,2049
115,91.62,91.7,91.58,91.67,3830
116,91.56,91.62,91.56,91.6168,3295
117,91.535,91.57,91.51,91.53,800
118,91.55,91.59,91.48,91.535,5425
119,91.43,91.57,91.42,91.57,4650
120,91.4699,91.4699,91.38,91.4236,5055
121,91.51,91.51,91.48,91.48,300
122,91.44,91.48,91.43,91.48,2039
123,91.55,91.55,91.4,91.43,3101
124,91.55,91.57,91.53,91.55,1200
125,91.57,91.57,91.52,91.555,1500
126,91.48,91.56,91.48,91.53,2202
127,91.45,91.51,91.45,91.47,3830
128,91.51,91.54,91.44,91.45,5718
129,91.5,91.56,91.5,91.53,4025
130,91.53,91.53,91.49,91.5,2800
131,91.51,91.54,91.5,91.54,1600
132,91.48,91.53,91.48,91.5,2300
133,91.52,91.53,91.48,91.48,1800
134,91.5115,91.541,91.5115,91.53,912
135,91.45,91.51,91.43,91.5,1959
136,91.45,91.46,91.42,91.43,3100
137,91.42,91.46,91.37,91.45,9303
138,91.4,91.44,91.38,91.43,6100
139,91.38,91.41,91.38,91.41,4730
140,91.4,91.43,91.4,91.4,35023
141,91.41,91.44,91.38,91.405,4051
142,91.37,91.41,91.36,91.4,1520
143,91.37,91.43,91.36,91.36,8200
144,91.39,91.4,91.36,91.39,3100
145,91.37,91.37,91.34,91.37,3100
146,91.46,91.46,91.39,91.39,2249
147,91.4751,91.48,91.42,91.46,1550
148,91.51,91.51,91.49,91.49,3246
149,91.547,91.55,91.47,91.5,5261
150,91.5999,91.5999,91.53,91.54,5634
151,91.6,91.64,91.58,91.5861,7608
152,91.595,91.6,91.58,91.59,4453
153,91.57,91.595,91.55,91.5801,5000
154,91.605,91.61,91.55,91.56,3500
155,91.6,91.61,91.59,91.61,2114
156,91.58,91.61,91.58,91.61,932
157,91.53,91.58,91.53,91.57,2299
158,91.52,91.53,91.51,91.53,4400
159,91.5399,91.55,91.53,91.54,2331
160,91.5,91.52,91.49,91.52,2884
161,91.47,91.49,91.46,91.49,4717
162,91.43,91.46,91.43,91.46,2900
163,91.48,91.48,91.42,91.43,11300
164,91.43,91.48,91.42,91.48,3328
165,91.43,91.46,91.42,91.42,1700
166,91.46,91.46,91.44,91.45,900
167,91.445,91.46,91.43,91.43,2000
168,91.4,91.445,91.4,91.43,4000
169,91.39,91.42,91.39,91.41,2707
170,91.37,91.37,91.35,91.37,1000
171,91.27,91.38,91.27,91.38,2212
172,91.26,91.28,91.25,91.26,2760
173,91.23,91.25,91.23,91.25,4100
174,91.25,91.26,91.24,91.24,4100
176,91.24,91.26,91.2384,91.2384,1750
177,91.31,91.32,91.22,91.23,6494
178,91.28,91.3,91.28,91.3,1200
179,91.295,91.3,91.285,91.285,500
180,91.29,91.3,91.29,91.3,772
181,91.25,91.3,91.25,91.295,2600
182,91.2473,91.25,91.235,91.25,2522
183,91.22,91.25,91.22,91.24,3121
184,91.17,91.21,91.16,91.21,3900
185,91.15,91.18,91.1245,91.18,2190
186,91.16,91.19,91.14,91.14,4356
187,91.225,91.24,91.165,91.165,10321
188,91.27,91.27,91.23,91.24,2413
189,91.24,91.27,91.23,91.27,3531
190,91.21,91.25,91.2,91.2432,3860
191,91.3,91.3116,91.2175,91.22,7244
192,91.28,91.305,91.28,91.305,3310
193,91.29,91.32,91.27,91.3,5404
194,91.26,91.29,91.24,91.29,4499
195,91.28,91.3,91.25,91.26,2300
196,91.26,91.29,91.245,91.28,1753
197,91.23,91.27,91.22,91.23,3236
198,91.23,91.24,91.21,91.21,2400
199,91.27,91.335,91.24,91.24,4600
200,91.32,91.33,91.29,91.3,1700
201,91.33,91.33,91.28,91.3186,1450
202,91.31,91.34,91.31,91.34,2200
203,91.25,91.31,91.25,91.31,7700
204,91.24,91.26,91.23,91.255,11701
205,91.21,91.245,91.18,91.245,10047
206,91.21,91.24,91.21,91.23,4068
207,91.24,91.245,91.2,91.2,6000
208,91.1886,91.235,91.18,91.235,2600
209,91.16,91.19,91.15,91.19,3388
210,91.1175,91.17,91.09,91.17,11831
211,91.115,91.13,91.1,91.1,1842
212,91.22,91.22,91.14,91.14,3375
213,91.29,91.3,91.21,91.24,8517
214,91.26,91.3,91.24,91.3,4608
215,91.32,91.32,91.28,91.28,2500
216,91.34,91.34,91.29,91.33,5564
217,91.26,91.34,91.25,91.34,7113
218,91.3,91.32,91.26,91.26,1700
219,91.4,91.41,91.32,91.32,5848
220,91.36,91.41,91.36,91.4,6038
221,91.32,91.3496,91.305,91.3496,5063
222,91.35,91.36,91.34,91.35,800
223,91.39,91.42,91.39,91.39,1249
224,91.41,91.41,91.39,91.4,6400
225,91.42,91.42,91.39,91.4,2064
226,91.43,91.44,91.42,91.42,700
227,91.39,91.42,91.39,91.42,21500
228,91.52,91.52,91.4,91.4,54282
229,91.57,91.57,91.505,91.505,77834
230,91.6,91.64,91.53,91.55,3900
231,91.59,91.61,91.58,91.61,2620
232,91.54,91.61,91.54,91.59,1900
233,91.54,91.54,91.52,91.52,700
234,91.51,91.53,91.51,91.53,1400
235,91.54,91.55,91.51,91.51,6658
236,91.49,91.51,91.49,91.49,1100
237,91.55,91.55,91.495,91.51,3580
238,91.55,91.57,91.52,91.54,6345
239,91.56,91.56,91.495,91.53,3050
240,91.54,91.56,91.54,91.56,2488
241,91.54,91.58,91.54,91.55,5643
242,91.61,91.61,91.53,91.54,13673
243,91.56,91.59,91.56,91.58,3570
244,91.58,91.595,91.52,91.54,1629
245,91.57,91.59,91.57,91.58,92130
246,91.57,91.59,91.57,91.584,3350
247,91.55,91.56,91.55,91.56,555
248,91.5584,91.5584,91.53,91.55,2303
249,91.49,91.5801,91.47,91.57,9344
250,91.44,91.48,91.44,91.48,759
251,91.51,91.51,91.455,91.46,3729
252,91.49,91.52,91.48,91.51,3241
253,91.4201,91.49,91.4201,91.49,2636
254,91.45,91.49,91.43,91.43,2629
255,91.44,91.4614,91.43,91.4614,2155
256,91.4495,91.45,91.435,91.44,1561
257,91.42,91.45,91.42,91.44,4500
258,91.4,91.4,91.37,91.4,1900
259,91.46,91.46,91.41,91.41,2170
260,91.47,91.47,91.41,91.45,3900
261,91.43,91.5,91.43,91.47,3800
262,91.49,91.49,91.46,91.46,1300
263,91.4943,91.5,91.48,91.5,4770
264,91.49,91.49,91.4886,91.4886,1277
265,91.49,91.5,91.47,91.48,5998
266,91.47,91.51,91.47,91.51,4124
267,91.45,91.46,91.44,91.46,1502
268,91.44,91.44,91.42,91.44,1600
269,91.46,91.47,91.45,91.46,1925
270,91.5,91.51,91.45,91.46,5296
271,91.39,91.49,91.1284,91.47,19969
272,91.5,91.54,91.42,91.44,4998
273,91.51,91.54,91.48,91.48,1100
274,91.47,91.53,91.46,91.53,7877
275,91.546,91.58,91.5,91.53,8603
276,91.67,91.67,91.5675,91.59,11450
277,91.615,91.65,91.6,91.65,2972
278,91.65,91.66,91.6,91.6,5758
279,91.6,91.655,91.6,91.655,3816
280,91.65,91.65,91.59,91.6,4175
281,91.65,91.68,91.58,91.65,8108
282,91.63,91.63,91.6,91.63,1500
283,91.6,91.62,91.57,91.61,6989
284,91.59,91.61,91.56,91.6,2601
285,91.6,91.62,91.58,91.59,3700
286,91.57,91.62,91.57,91.62,5308
287,91.5598,91.62,91.5598,91.57,5219
288,91.61,91.62,91.58,91.58,7365
289,91.63,91.67,91.53,91.61,6749
290,91.62,91.64,91.55,91.64,5133
291,91.62,91.67,91.61,91.63,1718
292,91.66,91.69,91.61,91.62,11267
293,91.69,91.72,91.65,91.66,3606
294,91.74,91.74,91.69,91.69,4699
295,91.7,91.75,91.68,91.74,5346
296,91.72,91.75,91.72,91.73,5426
297,91.66,91.73,91.65,91.73,1950
298,91.59,91.68,91.57,91.67,7616
299,91.63,91.63,91.56,91.57,8549
300,91.62,91.66,91.62,91.63,2500
301,91.68,91.7,91.6,91.61,4313
302,91.64,91.69,91.64,91.67,53400
303,91.72,91.769,91.66,91.68,4966
304,91.73,91.74,91.73,91.74,300
305,91.75,91.76,91.735,91.735,3614
306,91.78,91.78,91.73,91.76,4208
307,91.77,91.8,91.77,91.78,2969
308,91.79,91.79,91.75,91.78,4537
309,91.84,91.84,91.8,91.8,3259
310,91.8353,91.84,91.83,91.84,2365
311,91.87,91.88,91.84,91.84,4444
312,91.88,91.88,91.84,91.88,10897
313,91.85,91.885,91.84,91.87,5900
314,91.87,91.9,91.855,91.855,5435
315,91.87,91.87,91.86,91.87,7954
316,91.9,91.9,91.86,91.87,8175
317,91.83,91.91,91.82,91.91,5400
318,91.8,91.84,91.79,91.83,11200
319,91.77,91.815,91.76,91.81,4435
320,91.81,91.82,91.8,91.8,2467
321,91.85,91.87,91.82,91.82,4825
322,91.91,91.91,91.84,91.85,9485
323,92.03,92.05,91.905,91.905,12263
324,91.94,92.03,91.93,92.03,3200
325,91.94,91.9581,91.93,91.935,3240
326,91.9105,91.935,91.9,91.935,5310
327,91.93,91.975,91.91,91.91,9809
328,91.97,91.98,91.95,91.95,2631
329,92.11,92.11,91.98,91.98,6200
330,92.11,92.14,92.08,92.1,3567
331,92.145,92.19,92.11,92.16,4177
332,92.18,92.18,92.08,92.1,4903
333,92.17,92.22,92.17,92.18,2755
334,92.255,92.26,92.17,92.17,3385
335,92.31,92.31,92.24,92.25,2700
336,92.2,92.3,92.2,92.3,4502
337,92.24,92.24,92.24,92.24,100
338,92.21,92.26,92.21,92.26,1713
339,92.15,92.208,92.13,92.208,4723
340,92.1841,92.19,92.13,92.13,2740
341,92.21,92.21,92.17,92.18,1800
342,92.13,92.22,92.13,92.22,2521
343,92.1,92.11,92.05,92.11,3958
344,92.09,92.103,92.09,92.103,764
345,92.04,92.08,92.04,92.08,2900
346,92.01,92.04,91.98,92.04,4325
347,92,92.01,91.96,92,4500
348,91.99,92,91.96,92,2400
349,92.02,92.05,92,92,800
350,92.04,92.04,92.01,92.03,5017
351,92.07,92.07,92.04,92.04,14788
352,92.08,92.085,92.06,92.065,9493
353,92.11,92.11,92.1,92.1,2398
354,92.14,92.19,92.1116,92.12,6204
355,92.11,92.13,92.1,92.13,4001
356,92.08,92.12,92.07,92.12,3077
357,92.04,92.1,92.02,92.09,5065
358,92.08,92.08,92.03,92.04,3400
359,92.1,92.1,92.08,92.08,6382
360,92.07,92.1,92.07,92.1,8449
361,92.1,92.13,92.09,92.1,7825
362,92.09,92.13,92.07,92.09,6330
363,92.06,92.1,92.06,92.09,3309
364,92.09,92.09,92.06,92.06,4916
365,92.1,92.1,92.0522,92.09,5662
366,92.12,92.12,92.09,92.1,6869
367,92.0733,92.12,92.06,92.12,8614
368,92.04,92.07,92.04,92.06,8643
369,92,92.04,91.99,92.04,6639
370,91.96,92.01,91.96,92.01,5951
371,91.88,91.95,91.87,91.95,16412
372,91.88,91.93,91.88,91.88,12517
373,91.89,91.905,91.88,91.88,12167
374,91.94,91.96,91.89,91.89,17022
375,91.94,91.97,91.94,91.94,14410
376,91.91,91.94,91.89,91.94,12457
377,91.85,91.92,91.85,91.9,14446
378,91.83,91.87,91.82,91.85,10245
379,91.87,91.89,91.83,91.83,16226
380,91.79,91.88,91.79,91.87,15788
381,91.67,91.78,91.66,91.78,15858
382,91.73,91.73,91.67,91.67,14568
383,91.735,91.74,91.71,91.72,18318
384,91.84,91.85,91.74,91.74,25826
385,91.88,91.9,91.84,91.84,12430
386,91.86,91.92,91.86,91.89,22107
387,91.84,91.89,91.83,91.85,31535
388,91.8,91.85,91.79,91.84,22658
389,91.78,91.82,91.78,91.805,21601
390,91.76,91.79,91.72,91.78,52738
