PPG,PPG Industries,Materials,8,Specialty Chemicals,27979251938,1409231
a1493818380,109.6,109.66,109.25,109.32,16361
1,109.59,109.62,109.515,109.515,800
2,109.575,109.575,109.575,109.575,200
3,109.58,109.6,109.56,109.56,500
4,109.56,109.65,109.53,109.59,3600
5,109.53,109.56,109.53,109.55,400
6,109.61,109.61,109.56,109.56,1600
8,109.59,109.674,109.59,109.674,475
9,109.56,109.56,109.56,109.56,300
10,109.5701,109.58,109.5701,109.58,300
12,109.59,109.59,109.57,109.59,1800
13,109.63,109.66,109.6,109.65,2288
14,109.59,109.62,109.58,109.62,1400
15,109.48,109.62,109.48,109.61,1600
16,109.46,109.46,109.46,109.46,100
17,109.48,109.48,109.48,109.48,100
18,109.35,109.46,109.35,109.46,1435
22,109.32,109.37,109.32,109.37,908
23,109.25,109.31,109.25,109.31,1000
25,109.2301,109.2549,109.23,109.2549,1512
26,109.18,109.23,109.18,109.23,400
27,109.19,109.22,109.143,109.143,3112
28,109.16,109.23,109.16,109.19,7100
29,109.14,109.15,109.11,109.15,2300
30,109.11,109.15,109.11,109.14,1155
31,109.14,109.17,109.12,109.12,2300
32,109.155,109.18,109.11,109.11,2200
33,109.32,109.32,109.17,109.17,2900
34,109.23,109.3,109.23,109.3,1200
35,109.24,109.24,109.24,109.24,200
36,109.24,109.24,109.2,109.2,1300
37,109.2,109.23,109.2,109.22,700
38,109.19,109.23,109.1801,109.2,2411
39,109.24,109.24,109.19,109.19,800
40,109.26,109.26,109.26,109.26,100
41,109.27,109.27,109.27,109.27,100
42,109.31,109.31,109.254,109.2551,2851
43,109.28,109.3,109.28,109.28,1700
44,109.28,109.285,109.25,109.285,2224
45,109.25,109.29,109.25,109.29,1000
46,109.28,109.28,109.24,109.26,1100
47,109.23,109.29,109.22,109.28,11177
48,109.29,109.29,109.24,109.24,2783
49,109.24,109.2721,109.23,109.2721,1903
50,109.23,109.26,109.22,109.22,700
51,109.2398,109.2398,109.2398,109.2398,697
52,109.29,109.3,109.25,109.25,1500
53,109.24,109.27,109.24,109.27,2900
54,109.22,109.235,109.21,109.235,3300
55,109.26,109.26,109.23,109.24,3377
56,109.26,109.28,109.26,109.26,1000
57,109.26,109.26,109.26,109.26,300
58,109.1514,109.23,109.14,109.23,4002
59,109.17,109.17,109.16,109.16,1400
60,109.11,109.15,109.11,109.15,2460
61,109.05,109.1,109.05,109.1,4530
62,109.06,109.07,109.04,109.05,1563
63,109.0847,109.0847,109.0847,109.0847,100
64,109.11,109.11,109.1,109.1,600
65,109.09,109.1,109.09,109.1,600
66,109.07,109.08,109.07,109.08,600
67,109.1,109.1,109.065,109.065,700
70,109.05,109.08,109.04,109.08,1000
71,109.07,109.07,109.0597,109.0597,534
72,109.11,109.11,109.08,109.09,1700
73,109.15,109.16,109.11,109.11,2950
74,109.13,109.15,109.12,109.13,1992
75,109.11,109.12,109.07,109.12,3000
76,109.08,109.11,109.075,109.1,700
77,109.13,109.13,109.13,109.13,100
78,109.13,109.13,109.13,109.13,100
79,109.0885,109.135,109.07,109.135,2605
80,109.11,109.15,109.08,109.08,2060
81,109.1,109.1,109.1,109.1,100
82,109.119,109.15,109.11,109.12,2889
84,109.16,109.16,109.11,109.12,2887
85,109.1201,109.1201,109.1201,109.1201,275
86,109.105,109.125,109.1,109.125,900
87,109.22,109.22,109.1,109.11,1600
88,109.26,109.26,109.21,109.21,914
89,109.28,109.29,109.26,109.29,1300
90,109.34,109.37,109.3,109.3,2000
91,109.31,109.34,109.31,109.34,1000
92,109.34,109.35,109.33,109.33,1006
93,109.295,109.34,109.28,109.34,2800
94,109.36,109.36,109.29,109.29,600
95,109.44,109.45,109.37,109.37,2600
96,109.439,109.46,109.439,109.46,500
97,109.48,109.48,109.45,109.47,1300
98,109.5,109.5,109.46,109.46,600
99,109.51,109.52,109.51,109.51,500
101,109.48,109.48,109.47,109.48,1600
102,109.49,109.49,109.46,109.48,1091
103,109.485,109.485,109.485,109.485,100
104,109.49,109.51,109.49,109.51,200
105,109.55,109.55,109.5,109.5,900
106,109.55,109.57,109.55,109.57,2000
107,109.54,109.57,109.51,109.55,2300
108,109.58,109.58,109.53,109.53,1818
109,109.62,109.64,109.58,109.59,1599
110,109.61,109.61,109.61,109.61,400
112,109.535,109.55,109.5245,109.55,5563
113,109.54,109.54,109.5225,109.5225,1064
114,109.55,109.55,109.55,109.55,432
115,109.53,109.54,109.53,109.54,400
116,109.4983,109.54,109.49,109.54,614
117,109.52,109.52,109.52,109.52,142
118,109.54,109.54,109.52,109.52,1400
119,109.55,109.55,109.55,109.55,100
120,109.5232,109.53,109.51,109.53,898
121,109.5243,109.525,109.51,109.51,343
122,109.49,109.52,109.49,109.51,900
123,109.48,109.48,109.48,109.48,100
124,109.4333,109.47,109.4333,109.47,700
125,109.45,109.45,109.45,109.45,200
126,109.49,109.49,109.47,109.47,2000
127,109.46,109.49,109.43,109.49,4200
128,109.43,109.47,109.43,109.47,2200
131,109.415,109.43,109.41,109.43,3500
132,109.4,109.41,109.4,109.4,400
133,109.385,109.385,109.36,109.36,200
134,109.4,109.4,109.39,109.39,1200
135,109.42,109.43,109.41,109.41,1448
136,109.46,109.46,109.45,109.45,400
137,109.4779,109.49,109.45,109.465,4950
138,109.4,109.51,109.4,109.49,12286
139,109.4,109.424,109.39,109.42,8006
140,109.41,109.42,109.38,109.4,7100
141,109.4,109.42,109.38,109.41,19008
142,109.42,109.42,109.38,109.3829,1350
143,109.3949,109.42,109.3949,109.42,400
144,109.45,109.45,109.3995,109.4,5963
145,109.45,109.45,109.44,109.45,600
146,109.41,109.4511,109.41,109.4511,4250
147,109.46,109.47,109.41,109.43,3389
148,109.4468,109.4475,109.445,109.445,590
149,109.45,109.49,109.42,109.42,5330
150,109.44,109.49,109.43,109.43,2400
151,109.4,109.46,109.4,109.44,5000
152,109.43,109.45,109.4,109.41,2850
153,109.42,109.42,109.39,109.42,2331
154,109.3886,109.3886,109.3886,109.3886,199
155,109.42,109.42,109.39,109.41,700
156,109.48,109.48,109.41,109.41,1800
157,109.47,109.47,109.47,109.47,300
158,109.42,109.42,109.42,109.42,1500
159,109.45,109.46,109.43,109.43,700
160,109.47,109.47,109.46,109.46,1274
161,109.49,109.49,109.46,109.46,500
162,109.47,109.5,109.47,109.5,200
163,109.46,109.46,109.45,109.46,900
164,109.46,109.4796,109.46,109.46,1428
165,109.47,109.49,109.47,109.49,200
166,109.41,109.45,109.41,109.45,400
167,109.4,109.43,109.4,109.43,800
168,109.39,109.4,109.38,109.39,1300
169,109.36,109.36,109.36,109.36,295
170,109.27,109.36,109.27,109.34,1899
171,109.24,109.26,109.24,109.26,700
172,109.19,109.24,109.16,109.24,1414
173,109.15,109.17,109.15,109.17,600
174,109.11,109.15,109.11,109.15,1358
175,109.12,109.12,109.09,109.1,800
176,109.07,109.14,109.07,109.09,500
178,109.13,109.18,109.13,109.14,700
179,109.18,109.18,109.12,109.12,800
180,109.24,109.24,109.24,109.24,1818
181,109.26,109.27,109.22,109.27,709
183,109.24,109.29,109.23,109.28,1100
184,109.24,109.24,109.24,109.24,100
187,109.25,109.25,109.22,109.22,400
188,109.21,109.26,109.21,109.26,500
189,109.19,109.22,109.19,109.215,2850
190,109.2096,109.2096,109.17,109.18,1300
191,109.2,109.2,109.17,109.17,500
192,109.26,109.26,109.22,109.22,800
193,109.24,109.24,109.22,109.22,500
195,109.2189,109.2189,109.2189,109.2189,300
196,109.26,109.26,109.26,109.26,100
198,109.27,109.28,109.25,109.25,1100
199,109.26,109.29,109.26,109.29,1098
200,109.27,109.27,109.25,109.25,700
201,109.28,109.28,109.28,109.28,100
202,109.285,109.285,109.285,109.285,100
203,109.33,109.33,109.2828,109.302,534
208,109.34,109.34,109.315,109.315,400
211,109.35,109.36,109.35,109.36,858
214,109.29,109.37,109.29,109.37,1700
215,109.3,109.3,109.25,109.26,1000
216,109.3,109.3,109.275,109.275,500
217,109.35,109.35,109.3,109.3,600
218,109.28,109.29,109.28,109.29,300
219,109.26,109.26,109.26,109.26,100
220,109.27,109.27,109.27,109.27,100
221,109.3,109.3,109.285,109.3,500
222,109.285,109.285,109.261,109.27,2772
223,109.3,109.3,109.29,109.29,300
225,109.18,109.3,109.18,109.3,1300
226,109.17,109.18,109.14,109.17,2200
227,109.19,109.21,109.15,109.19,2200
228,109.19,109.19,109.17,109.19,1500
229,109.19,109.2,109.175,109.175,1215
230,109.22,109.22,109.2,109.2,1057
232,109.25,109.25,109.21,109.21,500
233,109.22,109.24,109.2,109.24,819
234,109.25,109.25,109.2,109.2,600
236,109.24,109.24,109.21,109.22,1100
237,109.21,109.22,109.2,109.22,790
238,109.2,109.23,109.18,109.19,2126
239,109.23,109.23,109.195,109.195,800
240,109.24,109.24,109.24,109.24,400
243,109.24,109.25,109.24,109.24,2000
244,109.24,109.24,109.22,109.24,400
245,109.24,109.24,109.22,109.22,711
246,109.2413,109.2485,109.2413,109.2485,334
247,109.22,109.23,109.21,109.23,1112
248,109.24,109.24,109.23,109.23,800
249,109.25,109.25,109.24,109.25,2500
250,109.22,109.24,109.21,109.24,1000
251,109.255,109.255,109.21,109.22,2200
252,109.29,109.29,109.25,109.27,1250
253,109.29,109.29,109.28,109.28,1100
254,109.32,109.32,109.3,109.3,700
255,109.29,109.29,109.29,109.29,100
260,109.2889,109.2889,109.2889,109.2889,110
261,109.28,109.29,109.28,109.29,400
262,109.28,109.28,109.26,109.28,2310
263,109.295,109.295,109.26,109.26,1897
264,109.37,109.37,109.32,109.32,691
265,109.36,109.36,109.35,109.35,900
266,109.365,109.365,109.36,109.36,900
267,109.37,109.37,109.3516,109.3516,408
268,109.36,109.38,109.35,109.35,6649
269,109.32,109.37,109.3,109.36,4500
270,109.28,109.3,109.28,109.29,700
271,109.35,109.39,109.299,109.299,5511
272,109.4,109.4,109.4,109.4,100
273,109.31,109.39,109.3,109.39,6700
274,109.33,109.33,109.285,109.31,1986
275,109.35,109.35,109.35,109.35,100
276,109.29,109.29,109.29,109.29,190
277,109.28,109.3,109.28,109.29,1800
278,109.255,109.2704,109.255,109.27,1055
279,109.27,109.27,109.26,109.2667,1010
280,109.28,109.28,109.27,109.28,1200
281,109.29,109.2965,109.27,109.28,950
282,109.27,109.27,109.27,109.27,700
283,109.25,109.27,109.24,109.27,1000
284,109.245,109.25,109.245,109.25,200
285,109.24,109.2656,109.24,109.26,2264
286,109.21,109.23,109.16,109.23,4002
287,109.2,109.21,109.2,109.2,500
288,109.21,109.21,109.15,109.15,546
290,109.155,109.155,109.15,109.15,900
291,109.16,109.16,109.15,109.15,850
292,109.15,109.18,109.15,109.16,1000
293,109.22,109.22,109.17,109.17,630
294,109.2,109.25,109.2,109.22,1401
295,109.174,109.22,109.14,109.19,1075
297,109.18,109.2009,109.16,109.16,945
298,109.19,109.2,109.17,109.2,1585
299,109.17,109.18,109.17,109.18,1000
300,109.2,109.2,109.18,109.18,300
301,109.21,109.21,109.21,109.21,100
302,109.2,109.2,109.2,109.2,200
303,109.21,109.21,109.21,109.21,100
304,109.22,109.22,109.2,109.2,200
305,109.21,109.21,109.19,109.2,2400
306,109.24,109.24,109.21,109.22,1300
307,109.27,109.27,109.23,109.23,547
308,109.28,109.28,109.255,109.255,2000
309,109.31,109.31,109.25,109.29,500
310,109.3,109.31,109.29,109.31,1200
311,109.33,109.33,109.32,109.32,300
312,109.33,109.33,109.33,109.33,200
313,109.34,109.34,109.34,109.34,100
314,109.28,109.32,109.28,109.32,1002
315,109.26,109.26,109.25,109.26,1500
316,109.27,109.27,109.25,109.25,900
317,109.29,109.29,109.26,109.26,822
318,109.2728,109.28,109.27,109.27,880
319,109.35,109.35,109.3,109.3,600
320,109.29,109.32,109.29,109.32,1600
321,109.285,109.285,109.285,109.285,500
322,109.3,109.3,109.25,109.27,1767
324,109.27,109.2926,109.27,109.2926,337
325,109.25,109.27,109.25,109.27,800
326,109.21,109.24,109.21,109.24,200
327,109.22,109.24,109.22,109.24,350
328,109.26,109.26,109.26,109.26,300
329,109.19,109.25,109.19,109.25,1583
330,109.23,109.23,109.19,109.19,1714
331,109.25,109.25,109.2,109.2,700
332,109.28,109.31,109.28,109.28,500
333,109.25,109.28,109.25,109.28,1700
334,109.24,109.24,109.21,109.23,1405
335,109.26,109.29,109.25,109.25,2965
336,109.24,109.26,109.23,109.25,1900
337,109.27,109.31,109.2,109.22,4149
338,109.27,109.27,109.25,109.25,905
339,109.25,109.2798,109.25,109.2798,1091
340,109.245,109.25,109.245,109.25,1103
341,109.24,109.276,109.23,109.23,1450
342,109.27,109.27,109.24,109.24,915
343,109.26,109.28,109.24,109.28,700
344,109.25,109.27,109.23,109.27,1900
345,109.22,109.22,109.22,109.22,700
346,109.19,109.23,109.19,109.22,3636
347,109.18,109.19,109.18,109.19,671
348,109.2,109.2,109.18,109.18,2522
349,109.21,109.22,109.2,109.2,1300
350,109.22,109.23,109.21,109.21,1584
351,109.23,109.24,109.21,109.23,2606
352,109.23,109.23,109.21,109.23,2400
353,109.2,109.225,109.2,109.225,3104
354,109.15,109.2,109.14,109.2,4300
355,109.16,109.17,109.15,109.15,3366
356,109.19,109.205,109.18,109.18,3407
357,109.22,109.22,109.22,109.22,100
358,109.23,109.26,109.22,109.22,1600
359,109.2353,109.25,109.23,109.23,1650
360,109.25,109.25,109.24,109.24,1100
361,109.27,109.27,109.25,109.25,500
362,109.25,109.27,109.245,109.27,2712
363,109.29,109.295,109.26,109.26,3360
364,109.28,109.29,109.28,109.29,1912
365,109.31,109.33,109.28,109.28,3106
366,109.25,109.33,109.24,109.31,3956
367,109.27,109.27,109.26,109.26,1093
368,109.27,109.31,109.26,109.27,2950
369,109.225,109.27,109.225,109.27,1387
370,109.25,109.26,109.23,109.23,3615
371,109.25,109.26,109.24,109.25,2538
372,109.28,109.28,109.26,109.26,2200
373,109.34,109.36,109.29,109.29,3537
374,109.33,109.36,109.33,109.35,2040
375,109.35,109.36,109.33,109.33,3226
376,109.345,109.36,109.34,109.35,3726
377,109.35,109.36,109.34,109.34,2800
378,109.36,109.37,109.35,109.35,10456
379,109.35,109.36,109.34,109.35,10168
380,109.36,109.36,109.34,109.35,3831
381,109.36,109.36,109.35,109.36,16717
382,109.36,109.37,109.35,109.355,8586
383,109.33,109.37,109.33,109.36,11411
384,109.31,109.33,109.31,109.32,2350
385,109.29,109.34,109.29,109.31,6084
386,109.23,109.31,109.23,109.31,10373
387,109.2,109.25,109.15,109.24,29522
