EOG,EOG Resources,Energy,3,Oil & Gas Exploration & Production,51848479911,3123419
a1496151000,90.35,90.47,90.31,90.47,28940
1,90.56,90.79,90.31,90.63,7305
2,90.51,90.5199,90.34,90.45,3916
3,90.31,90.46,90.31,90.46,1700
4,90.44,90.49,90.39,90.39,3145
5,90.39,90.44,90.31,90.42,16201
6,90.38,90.51,90.3,90.41,6030
7,90.468,90.6,90.38,90.38,7689
8,90.54,90.54,90.45,90.45,1411
9,90.44,90.55,90.44,90.52,6107
10,90.42,90.48,90.39,90.48,3600
11,90.23,90.45,90.2,90.4416,13569
12,90.28,90.32,90.23,90.26,7776
13,90.23,90.29,90.21,90.25,3800
14,90.21,90.23,90.14,90.22,7698
15,90.2,90.22,90.18,90.22,4836
16,90.285,90.36,90.21,90.22,9421
17,90.13,90.29,90.13,90.285,4364
18,90.02,90.18,90.01,90.15,6385
19,90.02,90.08,89.97,90.01,8101
20,89.98,90.06,89.93,90.038,3800
21,90.05,90.05,90,90.02,1983
22,90.02,90.06,90,90.06,5511
23,89.98,90.01,89.928,90.01,10379
24,90.01,90.02,89.98,90.01,13520
25,90.08,90.08,89.95,89.98,5622
26,89.93,90.09,89.93,90.08,10568
27,90.01,90.0219,89.92,89.92,4680
28,89.86,90,89.86,90,7294
29,89.94,89.9799,89.88,89.88,4720
30,89.975,89.98,89.93,89.968,1725
31,90.1,90.18,89.99,89.99,17438
32,90.09,90.18,90.09,90.15,4476
33,90.12,90.13,90.08,90.1051,11730
34,90.18,90.18,90.08,90.105,5300
35,90.2,90.22,90.12,90.16,29663
36,90.14,90.3,90.14,90.1805,13001
37,90.06,90.075,90.06,90.075,500
38,90,90.07,89.96,90.04,13859
39,89.96,90.03,89.92,89.95,8237
40,89.7,89.94,89.69,89.94,21032
41,89.67,89.74,89.61,89.69,8447
42,89.72,89.72,89.67,89.67,1866
43,89.69,89.72,89.65,89.68,22900
44,89.76,89.77,89.675,89.7,6708
45,89.68,89.88,89.64,89.76,12490
46,89.69,89.69,89.63,89.66,2033
47,89.69,89.725,89.655,89.7,2530
48,89.7,89.74,89.7,89.73,500
49,89.6645,89.74,89.66,89.66,7451
50,89.68,89.7,89.64,89.64,1200
51,89.7852,89.7939,89.68,89.68,2050
52,89.71,89.78,89.71,89.7621,1348
53,89.78,89.86,89.71,89.71,4107
54,89.73,89.76,89.67,89.75,55146
55,89.67,89.75,89.67,89.745,1000
56,89.69,89.69,89.64,89.66,2709
57,89.72,89.72,89.66,89.67,5732
58,89.66,89.75,89.66,89.7,5000
59,89.56,89.67,89.56,89.67,4920
60,89.48,89.56,89.48,89.54,4484
61,89.55,89.55,89.48,89.48,7300
62,89.49,89.56,89.48,89.54,5100
63,89.46,89.53,89.46,89.4982,14398
64,89.53,89.53,89.43,89.46,7544
65,89.71,89.73,89.53,89.55,9963
66,89.69,89.75,89.69,89.7,2888
67,89.84,89.8889,89.695,89.695,7445
68,89.79,89.84,89.76,89.84,3215
69,89.895,89.95,89.81,89.81,6918
70,90.02,90.05,89.92,89.92,2505
71,90.06,90.06,90.03,90.04,1100
72,90.06,90.0989,90.04,90.05,10661
73,90.15,90.15,90.06,90.06,11896
74,90.17,90.21,90.11,90.15,27000
75,90.045,90.16,90.045,90.14,3425
76,89.97,90.04,89.97,90.03,2500
77,90.065,90.07,89.985,89.99,3254
78,90,90.07,89.9972,90.06,2238
79,89.93,89.98,89.8614,89.98,3180
80,89.91,89.99,89.89,89.9257,4251
81,89.99,89.99,89.9193,89.9193,4659
82,89.9,89.98,89.9,89.95,1300
83,90.01,90.01,89.92,89.92,2628
84,90.08,90.12,90.06,90.06,1100
85,90.03,90.08,89.98,90.08,6321
86,90.04,90.0584,90.01,90.02,1902
87,89.94,90.04,89.93,90.04,55399
88,90,90,89.95,89.95,1650
89,89.99,90,89.96,90,3900
90,89.96,90.03,89.93,90,10000
91,90,90.03,89.985,89.99,2200
92,89.94,89.9904,89.94,89.99,1730
93,89.96,89.96,89.9,89.92,3732
94,89.87,89.96,89.87,89.96,1100
95,89.91,89.91,89.87,89.89,1244
96,89.81,89.97,89.81,89.92,2900
97,89.76,89.804,89.76,89.79,800
98,89.82,89.82,89.77,89.77,1825
99,89.8,89.82,89.8,89.8001,1700
100,89.85,89.89,89.81,89.81,2145
101,89.8,89.865,89.78,89.865,1200
102,89.76,89.78,89.75,89.78,3000
103,89.85,89.85,89.7,89.73,4451
104,89.965,89.97,89.87,89.87,11525
105,89.9,89.94,89.88,89.94,2729
106,89.9,89.91,89.87,89.88,1214
107,89.82,89.8868,89.82,89.88,2201
108,89.84,89.8548,89.84,89.84,592
109,89.88,89.88,89.84,89.845,1590
110,89.87,89.91,89.86,89.88,2926
111,89.76,89.85,89.75,89.85,2808
112,89.64,89.755,89.64,89.755,1450
113,89.62,89.7,89.62,89.65,3370
114,89.64,89.65,89.59,89.6,9208
115,89.61,89.6589,89.6,89.6589,4400
116,89.63,89.7,89.61,89.64,6093
117,89.645,89.6589,89.58,89.61,13093
118,89.67,89.7389,89.65,89.66,6766
119,89.695,89.73,89.65,89.6696,30924
120,89.64,89.7,89.64,89.7,3793
121,89.605,89.66,89.605,89.64,4790
122,89.58,89.63,89.5795,89.62,9717
123,89.64,89.64,89.57,89.59,15050
124,89.745,89.75,89.645,89.645,18601
125,89.67,89.8,89.65,89.76,7000
126,89.7389,89.74,89.645,89.67,7085
127,89.76,89.8,89.715,89.73,20383
128,89.87,89.87,89.76,89.76,3600
129,89.79,89.87,89.77,89.8689,5165
130,89.7,89.77,89.68,89.77,1930
131,89.61,89.7,89.61,89.67,1887
133,89.57,89.61,89.54,89.6,5169
134,89.575,89.6,89.51,89.59,3089
135,89.59,89.62,89.59,89.6,1201
136,89.6,89.6,89.58,89.58,2225
137,89.6195,89.63,89.6,89.63,1900
138,89.62,89.645,89.6,89.63,4666
139,89.59,89.6303,89.53,89.63,4059
140,89.5765,89.58,89.54,89.57,2310
141,89.61,89.62,89.59,89.59,4827
142,89.74,89.74,89.61,89.62,4733
143,89.79,89.79,89.7,89.71,4979
144,89.76,89.84,89.76,89.84,3350
145,89.86,89.89,89.76,89.76,6592
146,89.9169,89.92,89.85,89.85,4346
147,89.98,90,89.93,89.94,4744
148,90,90,89.92,89.98,6417
149,90,90,89.955,90,4990
150,90,90.01,89.98,89.995,18537
151,90.11,90.13,90,90,18416
152,90.115,90.15,90.08,90.11,16533
153,90.165,90.165,90.115,90.115,17445
154,90.21,90.21,90.13,90.165,23720
155,90.24,90.25,90.21,90.23,8615
156,90.15,90.24,90.15,90.24,10970
157,90.15,90.15,90.095,90.1,2800
158,90.11,90.14,90.0814,90.14,8407
159,90.19,90.235,90.11,90.12,8978
160,90.25,90.25,90.1878,90.19,3467
161,90.24,90.25,90.21,90.25,5738
162,90.25,90.3,90.235,90.25,6035
163,90.25,90.26,90.2298,90.24,4050
164,90.18,90.25,90.17,90.245,4143
165,90.195,90.195,90.15,90.18,3019
166,90.19,90.19,90.19,90.19,100
167,90.24,90.24,90.1715,90.2,3522
168,90.3,90.3,90.22,90.22,4073
169,90.24,90.3,90.24,90.29,4392
170,90.24,90.26,90.22,90.23,1800
171,90.27,90.27,90.25,90.25,2200
172,90.23,90.26,90.18,90.26,3800
173,90.27,90.28,90.24,90.24,2386
174,90.31,90.35,90.29,90.29,2826
175,90.34,90.36,90.32,90.34,2861
176,90.32,90.3639,90.31,90.3639,2760
177,90.34,90.36,90.32,90.32,14541
178,90.29,90.3577,90.26,90.3577,2155
179,90.355,90.36,90.31,90.31,2893
180,90.35,90.35,90.31,90.34,4400
181,90.38,90.4289,90.3367,90.3367,4372
182,90.38,90.43,90.38,90.41,4799
183,90.4001,90.4001,90.37,90.38,1050
184,90.4,90.4389,90.39,90.41,5050
185,90.4,90.41,90.39,90.39,2241
186,90.44,90.44,90.395,90.395,3370
187,90.442,90.45,90.44,90.45,961
188,90.4,90.433,90.38,90.433,3448
189,90.42,90.42,90.38,90.381,2591
190,90.45,90.45,90.42,90.42,1995
191,90.4,90.43,90.4,90.43,3498
192,90.43,90.43,90.38,90.39,3440
193,90.46,90.46,90.38,90.43,4584
194,90.49,90.49,90.44,90.45,2588
195,90.46,90.49,90.46,90.48,2500
196,90.49,90.49,90.455,90.46,3410
197,90.5,90.53,90.5,90.5,4624
198,90.57,90.5725,90.51,90.51,5590
199,90.55,90.57,90.52,90.56,5447
200,90.53,90.55,90.53,90.55,1700
201,90.56,90.56,90.53,90.53,4600
202,90.54,90.56,90.54,90.54,1600
203,90.55,90.58,90.55,90.56,2420
204,90.5314,90.55,90.5314,90.55,1118
205,90.52,90.53,90.52,90.52,2026
206,90.47,90.51,90.47,90.51,4700
207,90.48,90.49,90.47,90.47,1000
208,90.49,90.49,90.45,90.49,4228
209,90.42,90.48,90.42,90.48,1900
210,90.4116,90.42,90.4116,90.42,900
211,90.42,90.42,90.4,90.41,1400
212,90.43,90.45,90.42,90.42,2301
213,90.43,90.43,90.42,90.43,1614
214,90.37,90.44,90.37,90.44,3565
215,90.35,90.375,90.35,90.375,2529
216,90.3783,90.3783,90.35,90.35,2067
217,90.384,90.39,90.36,90.3698,2175
218,90.36,90.37,90.36,90.37,3767
219,90.37,90.37,90.3617,90.3617,1050
220,90.35,90.37,90.35,90.36,700
221,90.35,90.39,90.35,90.36,2900
222,90.37,90.37,90.35,90.35,2000
223,90.36,90.392,90.33,90.35,3454
224,90.3,90.3598,90.3,90.3598,2000
225,90.26,90.3,90.25,90.3,2400
226,90.27,90.27,90.258,90.26,3982
227,90.27,90.28,90.26,90.27,3027
228,90.24,90.26,90.24,90.26,1800
229,90.16,90.24,90.16,90.24,2842
230,90.115,90.16,90.11,90.16,5331
231,90.06,90.11,90.06,90.11,2200
232,90.1,90.1,90.05,90.06,5265
233,90.07,90.09,90.06,90.09,3100
234,90.06,90.08,90.06,90.07,1600
235,90.02,90.08,90.01,90.06,3000
236,90.04,90.045,90,90.01,5852
237,90.01,90.03,90,90.03,2500
238,90.07,90.08,90.01,90.01,3324
239,90.1,90.1,90.08,90.09,2800
240,90.16,90.16,90.1,90.1,3358
241,90.16,90.18,90.155,90.165,3402
242,90.165,90.1847,90.16,90.16,2615
243,90.21,90.21,90.16,90.165,2735
244,90.205,90.2103,90.205,90.21,1700
245,90.21,90.21,90.2,90.205,2400
246,90.285,90.31,90.2,90.21,3700
247,90.33,90.33,90.285,90.285,2200
248,90.315,90.3342,90.31,90.33,7509
249,90.29,90.32,90.27,90.32,4501
250,90.3,90.32,90.3,90.3,1650
251,90.23,90.295,90.22,90.295,3405
252,90.2,90.23,90.19,90.23,4347
253,90.205,90.22,90.2,90.2,7000
254,90.29,90.325,90.22,90.22,6763
255,90.33,90.34,90.28,90.29,3509
256,90.25,90.33,90.25,90.33,3045
257,90.24,90.27,90.24,90.24,4908
258,90.25,90.268,90.22,90.24,5828
259,90.29,90.29,90.245,90.245,2919
260,90.31,90.31,90.26,90.29,3700
261,90.4,90.4,90.33,90.33,1600
262,90.41,90.44,90.4,90.4,2702
263,90.42,90.42,90.42,90.42,1500
264,90.4,90.42,90.4,90.42,2001
265,90.36,90.4,90.36,90.4,4697
266,90.3779,90.38,90.34,90.36,3000
267,90.34,90.37,90.3257,90.37,2273
268,90.32,90.32,90.31,90.32,2160
269,90.38,90.38,90.33,90.33,2500
270,90.41,90.41,90.37,90.38,3509
271,90.41,90.41,90.39,90.41,1500
272,90.46,90.5,90.4315,90.44,1581
273,90.46,90.49,90.45,90.49,2401
274,90.46,90.46,90.44,90.46,4734
275,90.4,90.45,90.39,90.45,3027
276,90.4,90.4,90.38,90.39,2000
277,90.43,90.44,90.395,90.395,3943
278,90.53,90.53,90.42,90.43,3204
279,90.51,90.57,90.51,90.54,3400
280,90.6,90.6,90.51,90.53,5013
281,90.56,90.59,90.55,90.58,2100
282,90.55,90.565,90.55,90.55,6300
283,90.47,90.55,90.47,90.55,3919
284,90.4596,90.48,90.4533,90.48,5109
285,90.4786,90.4786,90.45,90.45,2088
286,90.55,90.579,90.48,90.49,3850
287,90.42,90.54,90.42,90.54,3100
288,90.44,90.44,90.4,90.4,1600
289,90.45,90.45,90.43,90.44,3100
290,90.42,90.44,90.395,90.44,3201
291,90.44,90.44,90.38,90.42,3276
292,90.44,90.44,90.4,90.4,1900
293,90.44,90.44,90.43,90.43,1600
294,90.43,90.45,90.43,90.44,1501
295,90.41,90.45,90.41,90.43,3400
296,90.3,90.4,90.3,90.4,3285
297,90.32,90.34,90.2975,90.3,6300
298,90.24,90.32,90.24,90.32,6092
299,90.25,90.25,90.22,90.22,1600
300,90.15,90.22,90.15,90.22,2601
301,90.2,90.2,90.14,90.15,3000
302,90.23,90.26,90.2,90.2,2501
303,90.21,90.225,90.18,90.225,4273
304,90.2,90.2,90.195,90.2,901
305,90.19,90.21,90.185,90.19,2082
306,90.15,90.19,90.15,90.19,5112
307,90.14,90.16,90.14,90.16,1300
308,90.17,90.2,90.14,90.14,10429
309,90.1103,90.15,90.1,90.15,3841
310,90.14,90.14,90.12,90.125,2323
311,90.15,90.17,90.14,90.14,2102
312,90.23,90.24,90.14,90.15,3295
313,90.23,90.25,90.21,90.22,3500
314,90.22,90.23,90.21,90.22,2900
315,90.24,90.26,90.22,90.22,2475
316,90.3,90.3,90.26,90.26,3018
317,90.29,90.3,90.28,90.3,6151
318,90.31,90.31,90.24,90.29,4515
319,90.32,90.3316,90.3053,90.3316,3312
320,90.29,90.32,90.28,90.32,3750
321,90.25,90.2866,90.25,90.2866,3101
322,90.19,90.26,90.19,90.25,4300
323,90.2,90.2,90.1702,90.18,4227
324,90.18,90.18,90.175,90.18,1372
325,90.16,90.18,90.15,90.18,2935
326,90.1109,90.16,90.11,90.16,2966
327,90.23,90.23,90.12,90.12,9088
328,90.23,90.235,90.21,90.23,9311
329,90.2446,90.255,90.2312,90.235,5160
330,90.255,90.27,90.25,90.25,2901
331,90.29,90.29,90.245,90.25,6186
332,90.31,90.33,90.29,90.29,5201
333,90.29,90.31,90.285,90.3,4150
334,90.28,90.29,90.26,90.29,4339
335,90.26,90.28,90.26,90.2701,8052
336,90.3,90.32,90.26,90.26,13008
337,90.3,90.3,90.27,90.295,4524
338,90.2,90.27,90.19,90.27,6300
339,90.11,90.2,90.11,90.19,7779
340,90.11,90.17,90.11,90.13,6399
341,90.09,90.11,90.08,90.11,5100
342,90.05,90.1,90.05,90.1,6101
343,90.04,90.06,90.02,90.05,4300
344,90.04,90.05,90.03,90.05,7858
345,90.04,90.0558,90.03,90.05,4690
346,90.07,90.08,90.03,90.04,10556
347,90.09,90.1,90.08,90.09,5167
348,90.09,90.093,90.05,90.093,8306
349,90.02,90.09,90.02,90.09,6807
350,90.02,90.04,90,90.02,12531
351,90.05,90.05,90.01,90.02,5556
352,90.0001,90.03,90,90.03,7201
353,90.03,90.03,90,90.01,6300
354,90.005,90.03,90,90.03,3510
355,90.015,90.03,90,90.005,10094
356,90.01,90.02,90,90.015,6220
357,89.995,90.01,89.99,90.005,8401
358,89.95,89.99,89.94,89.99,5182
359,89.93,89.955,89.91,89.955,6310
360,89.88,89.925,89.88,89.9,5849
361,89.9,89.91,89.88,89.88,5587
362,89.89,89.92,89.88,89.9,10183
363,89.84,89.91,89.84,89.9,7100
364,89.85,89.88,89.84,89.84,7654
365,89.83,89.86,89.82,89.85,7300
366,89.83,89.83,89.8,89.82,6692
367,89.85,89.85,89.81,89.83,7054
368,89.81,89.86,89.8,89.85,9174
369,89.785,89.83,89.78,89.82,7231
370,89.76,89.79,89.75,89.79,8300
371,89.74,89.765,89.73,89.76,13917
372,89.8,89.86,89.74,89.75,13447
373,89.76,89.8,89.76,89.8,8675
374,89.7,89.76,89.7,89.755,10373
375,89.75,89.75,89.7,89.7,8447
376,89.78,89.8,89.75,89.75,11555
377,89.7803,89.79,89.75,89.78,13138
378,89.77,89.81,89.76,89.78,9570
379,89.75,89.8,89.75,89.77,11401
380,89.71,89.7562,89.71,89.755,15473
381,89.68,89.73,89.68,89.71,15112
382,89.65,89.69,89.65,89.69,16931
383,89.65,89.67,89.65,89.66,10567
384,89.63,89.66,89.62,89.65,15506
385,89.59,89.63,89.56,89.63,17321
386,89.56,89.6,89.56,89.57,22600
387,89.55,89.59,89.54,89.56,18283
388,89.575,89.59,89.55,89.555,20539
389,89.57,89.6,89.55,89.58,32827
390,89.62,89.65,89.57,89.57,55715
