PPG,PPG Industries,Materials,8,Specialty Chemicals,27364046154,1187088
a1496151000,107,107,107,107,7554
2,106.683,106.683,106.683,106.683,450
3,106.46,106.59,106.41,106.56,1300
4,106.55,106.585,106.41,106.43,1800
5,106.29,106.39,106.14,106.39,4445
6,106.5,106.5,106.21,106.275,1930
7,106.29,106.55,106.29,106.48,3751
8,106.3,106.38,106.3,106.335,630
9,106.1607,106.32,106.1601,106.26,3286
10,106.19,106.19,106.14,106.14,1459
11,106.21,106.21,106.15,106.2,4500
12,106.26,106.26,106.21,106.23,1300
13,106.34,106.34,106.295,106.295,800
14,106.27,106.3,106.27,106.3,3500
15,106.3,106.3,106.24,106.27,2600
16,106.42,106.49,106.3,106.3,3200
17,106.4,106.42,106.37,106.37,1800
18,106.32,106.38,106.3,106.38,3252
19,106.22,106.31,106.21,106.31,3863
20,106.32,106.32,106.24,106.24,6252
21,106.28,106.39,106.28,106.37,1806
22,106.19,106.29,106.19,106.28,3300
23,106.21,106.355,106.16,106.16,2718
24,106.27,106.27,106.2,106.21,1152
25,106.26,106.275,106.26,106.275,500
26,106.27,106.29,106.23,106.29,8985
27,106.28,106.3,106.23,106.23,1600
28,106.22,106.31,106.17,106.31,2855
29,106.195,106.2,106.19,106.2,4000
30,106.22,106.22,106.15,106.195,3200
31,106.13,106.21,106.12,106.21,17502
32,106.01,106.14,105.97,106.14,8674
33,106.15,106.17,105.88,106,13613
34,106.23,106.24,106.11,106.16,3022
36,106.205,106.22,106.19,106.2191,1600
37,106.41,106.41,106.23,106.23,2200
38,106.43,106.45,106.4,106.44,1499
39,106.49,106.52,106.49,106.4956,550
40,106.47,106.47,106.42,106.44,1100
41,106.48,106.55,106.47,106.48,2550
42,106.495,106.495,106.495,106.495,100
43,106.48,106.49,106.45,106.49,2110
44,106.47,106.5,106.47,106.5,541
45,106.4,106.4702,106.4,106.4702,456
46,106.4,106.45,106.38,106.4,7009
47,106.46,106.46,106.39,106.41,1100
48,106.4,106.45,106.37,106.45,11814
49,106.395,106.43,106.395,106.42,1100
50,106.35,106.41,106.35,106.4,3800
51,106.38,106.38,106.34,106.35,2121
52,106.3,106.36,106.28,106.35,2300
53,106.33,106.35,106.28,106.28,3568
54,106.3,106.3,106.3,106.3,100
55,106.27,106.32,106.27,106.32,1100
56,106.29,106.29,106.27,106.27,500
57,106.26,106.29,106.26,106.29,800
58,106.17,106.26,106.17,106.26,1404
59,106.17,106.2,106.15,106.17,5100
60,106.21,106.21,106.16,106.16,2600
61,106.25,106.27,106.21,106.21,1500
62,106.18,106.25,106.18,106.25,1100
63,106.18,106.18,106.18,106.18,100
64,106.17,106.19,106.16,106.18,2399
65,106.17,106.18,106.16,106.16,1911
66,106.18,106.19,106.17,106.17,2920
67,106.18,106.21,106.16,106.18,9253
68,106.15,106.17,106.15,106.17,3300
69,106.12,106.14,106.12,106.14,2039
70,106.22,106.22,106.12,106.12,1900
71,106.235,106.235,106.22,106.22,300
72,106.238,106.25,106.23,106.235,1556
73,106.17,106.23,106.17,106.23,2567
74,106.09,106.13,106.09,106.13,500
75,106.11,106.11,106.09,106.09,2291
76,106.1,106.1,106.09,106.1,487
77,106.01,106.07,106.01,106.06,2200
78,105.98,106.01,105.97,106.01,500
79,106.1,106.1,106,106,5756
80,106.14,106.14,106.13,106.13,300
81,106.15,106.15,106.14,106.1499,430
82,106.12,106.14,106.1,106.14,5008
83,106.1,106.15,106.1,106.13,1900
84,106.1,106.11,106.1,106.1,1098
85,106.07,106.09,106.06,106.09,1600
86,106.09,106.09,106.06,106.065,1750
87,106.05,106.095,106.05,106.095,1000
88,106.11,106.11,106.05,106.05,4048
89,106.13,106.13,106.08,106.124,3000
90,106.12,106.12,106.12,106.12,200
91,106.16,106.16,106.1215,106.1215,2653
92,106.19,106.19,106.164,106.164,2817
93,106.18,106.195,106.17,106.195,1100
94,106.2,106.21,106.175,106.18,2115
95,106.25,106.25,106.21,106.21,400
96,106.22,106.23,106.22,106.23,500
98,106.24,106.25,106.23,106.25,3403
99,106.27,106.28,106.24,106.24,2800
100,106.22,106.27,106.22,106.26,1098
101,106.18,106.21,106.18,106.21,700
102,106.16,106.18,106.16,106.18,300
103,106.19,106.19,106.18,106.18,800
104,106.17,106.18,106.17,106.18,924
105,106.17,106.17,106.17,106.17,500
106,106.21,106.21,106.16,106.16,2958
107,106.2,106.2177,106.19,106.2177,3402
108,106.2,106.2,106.2,106.2,100
109,106.19,106.2,106.18,106.2,1000
110,106.165,106.2,106.16,106.19,2186
111,106.14,106.18,106.14,106.17,3696
112,106.1,106.13,106.1,106.13,1899
113,106.07,106.09,106.06,106.09,2902
114,106.06,106.07,106.05,106.06,1681
115,106.05,106.06,106.05,106.06,200
116,106.0882,106.09,106.07,106.07,1433
117,105.99,106.08,105.99,106.08,2200
118,106.085,106.1,106.03,106.03,1900
119,106.09,106.09,106.07,106.08,300
120,106.03,106.07,106.03,106.07,700
121,106.01,106.03,106.01,106.03,703
122,106.03,106.05,106.02,106.02,1944
123,106,106.03,105.98,106.03,1570
124,106.005,106.02,106,106.01,1033
125,106.02,106.02,106.02,106.02,300
126,106.005,106.0164,105.99,106.0164,2034
127,106,106.02,105.99,105.99,800
128,106.06,106.06,105.9905,106,2886
129,106.0439,106.0439,106.0439,106.0439,282
130,106.03,106.045,106.02,106.03,2650
131,106.04,106.05,106.03,106.03,1524
132,106.04,106.06,106.04,106.06,797
133,106.12,106.12,106.04,106.04,5786
135,106.15,106.15,106.13,106.13,1400
136,106.17,106.17,106.15,106.16,2310
137,106.17,106.17,106.15,106.15,600
138,106.18,106.18,106.18,106.18,100
139,106.14,106.1801,106.14,106.18,2686
140,106.17,106.18,106.16,106.16,1414
141,106.16,106.16,106.15,106.15,1500
142,106.15,106.18,106.15,106.18,600
144,106.17,106.18,106.17,106.17,500
145,106.18,106.18,106.17,106.17,700
146,106.18,106.18,106.15,106.165,1200
147,106.24,106.24,106.18,106.18,3100
148,106.23,106.24,106.22,106.24,2150
149,106.3,106.3,106.24,106.24,2945
150,106.33,106.33,106.31,106.31,600
151,106.31,106.36,106.31,106.36,1108
153,106.26,106.32,106.26,106.31,1400
156,106.26,106.305,106.26,106.28,2784
157,106.3,106.32,106.29,106.29,1928
158,106.29,106.3,106.29,106.3,800
159,106.21,106.28,106.21,106.28,1200
161,106.21,106.21,106.21,106.21,100
162,106.18,106.22,106.17,106.22,1700
163,106.16,106.16,106.16,106.16,400
164,106.185,106.185,106.15,106.15,1439
165,106.21,106.21,106.19,106.19,2498
166,106.1747,106.21,106.1747,106.2,925
168,106.23,106.23,106.2,106.2,1974
169,106.19,106.22,106.19,106.22,700
170,106.15,106.17,106.15,106.17,200
173,106.23,106.23,106.19,106.19,1800
174,106.27,106.3,106.26,106.26,2397
176,106.28,106.28,106.26,106.275,700
177,106.27,106.27,106.27,106.27,451
178,106.27,106.27,106.27,106.27,100
179,106.27,106.28,106.26,106.27,1654
180,106.26,106.26,106.26,106.26,100
181,106.39,106.39,106.29,106.29,4066
182,106.41,106.41,106.41,106.41,597
183,106.43,106.45,106.41,106.45,1900
184,106.4137,106.43,106.4137,106.415,461
187,106.45,106.48,106.44,106.44,2500
188,106.44,106.45,106.44,106.45,881
189,106.45,106.45,106.42,106.42,500
190,106.455,106.48,106.455,106.46,1400
191,106.53,106.53,106.48,106.48,500
193,106.52,106.54,106.52,106.54,1700
194,106.51,106.525,106.51,106.52,1818
195,106.47,106.505,106.47,106.505,1301
196,106.46,106.472,106.46,106.46,900
197,106.45,106.45,106.45,106.45,100
198,106.44,106.45,106.44,106.45,500
199,106.47,106.472,106.45,106.45,1247
200,106.37,106.475,106.36,106.47,11100
201,106.4,106.4,106.37,106.37,2093
202,106.395,106.395,106.395,106.395,100
203,106.35,106.395,106.35,106.38,900
204,106.37,106.37,106.35,106.35,1200
205,106.18,106.37,106.18,106.36,10016
206,106.2899,106.2899,106.22,106.22,1424
207,106.25,106.28,106.25,106.28,1500
208,106.28,106.28,106.27,106.27,200
209,106.27,106.27,106.26,106.26,400
210,106.26,106.26,106.2501,106.2501,400
211,106.27,106.27,106.26,106.26,1700
212,106.3001,106.3199,106.27,106.27,2367
213,106.3099,106.31,106.295,106.3,1201
214,106.29,106.31,106.29,106.3,1100
215,106.3299,106.3299,106.29,106.29,2000
216,106.34,106.355,106.2943,106.33,2600
218,106.36,106.36,106.33,106.33,2500
219,106.3899,106.3899,106.372,106.38,772
220,106.41,106.41,106.39,106.39,1500
221,106.51,106.51,106.42,106.42,1600
222,106.48,106.51,106.46,106.5,2300
223,106.53,106.53,106.49,106.49,2663
225,106.49,106.5,106.47,106.49,1205
226,106.52,106.52,106.48,106.48,2268
227,106.51,106.525,106.51,106.515,1750
228,106.3501,106.53,106.33,106.51,18526
229,106.3,106.35,106.3,106.35,3500
230,106.33,106.3315,106.29,106.3,4411
231,106.31,106.31,106.3,106.3,200
233,106.26,106.3,106.26,106.3,3797
234,106.25,106.26,106.17,106.26,3101
235,106.29,106.29,106.28,106.28,600
236,106.24,106.27,106.24,106.27,600
237,106.25,106.25,106.25,106.25,100
238,106.25,106.25,106.24,106.24,500
239,106.26,106.26,106.24,106.24,2000
240,106.28,106.28,106.27,106.27,300
241,106.28,106.28,106.25,106.27,2862
242,106.27,106.28,106.27,106.28,200
243,106.2262,106.27,106.2262,106.27,1728
244,106.23,106.23,106.225,106.225,200
245,106.19,106.23,106.17,106.23,2607
246,106.19,106.19,106.17,106.17,1700
247,106.2125,106.23,106.2,106.2,1678
248,106.23,106.23,106.23,106.23,112
249,106.21,106.23,106.21,106.23,1862
250,106.2,106.22,106.19,106.22,1900
251,106.21,106.21,106.21,106.21,100
253,106.2,106.22,106.2,106.22,2117
254,106.24,106.24,106.205,106.205,2233
255,106.2071,106.24,106.2071,106.24,1767
256,106.205,106.205,106.2,106.2,700
257,106.21,106.21,106.21,106.21,400
258,106.23,106.23,106.21,106.21,1327
259,106.23,106.235,106.22,106.22,1100
260,106.24,106.24,106.24,106.24,600
261,106.25,106.25,106.2385,106.25,1591
262,106.26,106.26,106.25,106.25,500
263,106.23,106.25,106.23,106.24,2500
264,106.24,106.24,106.24,106.24,200
265,106.245,106.245,106.23,106.23,1198
267,106.25,106.25,106.22,106.23,1600
268,106.25,106.255,106.24,106.25,2025
269,106.26,106.26,106.26,106.26,800
270,106.26,106.26,106.26,106.26,200
271,106.26,106.26,106.26,106.26,300
272,106.29,106.29,106.27,106.27,4568
273,106.31,106.32,106.3,106.31,500
274,106.335,106.335,106.32,106.32,527
275,106.35,106.35,106.33,106.33,1225
277,106.35,106.365,106.34,106.36,3239
278,106.39,106.39,106.345,106.345,1900
279,106.425,106.43,106.39,106.39,1112
280,106.44,106.45,106.42,106.42,1200
281,106.42,106.44,106.41,106.43,1000
283,106.42,106.42,106.41,106.41,1043
284,106.4232,106.4303,106.4134,106.42,751
285,106.41,106.42,106.4,106.42,1000
286,106.425,106.425,106.425,106.425,100
287,106.38,106.4253,106.38,106.4253,4700
288,106.44,106.44,106.37,106.38,6860
289,106.47,106.47,106.45,106.45,500
290,106.48,106.49,106.4601,106.4601,760
291,106.48,106.48,106.48,106.48,100
292,106.48,106.48,106.47,106.48,600
293,106.48,106.48,106.48,106.48,300
294,106.53,106.56,106.49,106.49,2700
295,106.53,106.535,106.53,106.535,200
296,106.54,106.54,106.53,106.53,800
297,106.57,106.57,106.57,106.57,200
298,106.56,106.56,106.56,106.56,100
299,106.565,106.57,106.56,106.56,1800
300,106.55,106.57,106.55,106.57,1800
301,106.62,106.62,106.56,106.56,1902
302,106.595,106.625,106.595,106.62,1000
303,106.58,106.59,106.58,106.59,300
304,106.57,106.57,106.57,106.57,100
306,106.57,106.58,106.56,106.58,2341
307,106.61,106.61,106.58,106.58,2508
309,106.59,106.6,106.59,106.6,500
310,106.6111,106.619,106.6111,106.619,325
311,106.635,106.635,106.6,106.61,2985
312,106.61,106.62,106.61,106.62,806
313,106.6001,106.605,106.6001,106.605,361
314,106.6,106.6,106.59,106.6,1800
316,106.58,106.6,106.58,106.6,1000
317,106.62,106.62,106.59,106.59,4127
318,106.61,106.61,106.6035,106.61,1298
319,106.66,106.66,106.615,106.615,2298
320,106.6814,106.6814,106.67,106.67,801
321,106.68,106.68,106.68,106.68,100
322,106.67,106.69,106.67,106.67,1220
323,106.66,106.66,106.66,106.66,300
324,106.66,106.67,106.66,106.67,200
325,106.69,106.69,106.66,106.66,1501
326,106.67,106.675,106.67,106.67,601
327,106.73,106.73,106.66,106.67,2308
328,106.735,106.735,106.735,106.735,100
329,106.73,106.74,106.73,106.73,1569
330,106.74,106.74,106.71,106.725,1191
331,106.78,106.78,106.75,106.75,2291
332,106.79,106.79,106.78,106.78,900
333,106.74,106.78,106.72,106.78,3100
334,106.71,106.74,106.71,106.74,800
335,106.73,106.73,106.72,106.72,300
336,106.7,106.71,106.7,106.71,800
337,106.68,106.725,106.68,106.71,3299
338,106.65,106.6846,106.65,106.68,2445
339,106.65,106.65,106.65,106.65,400
340,106.654,106.654,106.654,106.654,104
341,106.625,106.65,106.62,106.65,1601
342,106.6234,106.6234,106.6234,106.6234,690
343,106.635,106.64,106.61,106.61,2815
344,106.62,106.64,106.62,106.64,2806
345,106.6106,106.6232,106.61,106.6232,969
346,106.57,106.59,106.57,106.59,1100
347,106.6,106.6,106.57,106.57,3299
348,106.61,106.61,106.605,106.606,585
349,106.58,106.605,106.58,106.6,1848
350,106.58,106.58,106.57,106.58,700
351,106.56,106.58,106.56,106.58,1653
352,106.57,106.57,106.5553,106.5553,1200
353,106.56,106.58,106.55,106.57,3933
354,106.55,106.55,106.55,106.55,400
356,106.535,106.55,106.53,106.54,2620
357,106.54,106.54,106.53,106.53,308
358,106.5,106.54,106.5,106.54,3477
359,106.51,106.51,106.5,106.5,2800
360,106.52,106.52,106.51,106.51,200
361,106.505,106.52,106.5,106.52,4902
362,106.48,106.4901,106.48,106.49,1778
363,106.49,106.49,106.49,106.49,400
364,106.49,106.49,106.48,106.48,2064
365,106.5,106.5,106.48,106.48,500
366,106.52,106.53,106.5,106.5,7610
367,106.51,106.52,106.51,106.52,3172
368,106.53,106.53,106.505,106.505,2341
369,106.53,106.53,106.51,106.52,900
370,106.53,106.53,106.51,106.51,3009
371,106.5078,106.54,106.5,106.53,6007
372,106.52,106.52,106.51,106.52,2052
373,106.53,106.53,106.51,106.51,2451
374,106.52,106.525,106.51,106.52,3000
375,106.5,106.54,106.5,106.52,7263
376,106.5,106.51,106.5,106.51,1100
377,106.5,106.51,106.5,106.51,1336
378,106.51,106.52,106.5,106.51,9567
379,106.52,106.52,106.51,106.52,3800
380,106.52,106.53,106.515,106.52,3401
381,106.48,106.53,106.47,106.52,7408
382,106.43,106.48,106.43,106.48,2799
383,106.49,106.5,106.44,106.44,7384
384,106.49,106.5,106.48,106.49,2700
385,106.49,106.49,106.48,106.48,2266
386,106.5,106.5,106.48,106.49,10435
387,106.49,106.5,106.48,106.5,8252
388,106.48,106.49,106.46,106.48,8490
389,106.48,106.49,106.48,106.48,4807
390,106.48,106.5,106.48,106.485,13618
