EOG,EOG Resources,Energy,3,Oil & Gas Exploration & Production,55406232184,3328384
a1501162200,94.7,94.7,94.54,94.62,15928
1,94.57,94.75,94.471,94.471,4154
2,94.62,94.63,94.52,94.63,2212
3,94.46,94.58,94.46,94.58,1039
4,94.55,94.55,94.49,94.51,2433
5,94.61,94.64,94.53,94.56,12200
6,94.52,94.6,94.52,94.6,2804
7,94.52,94.64,94.51,94.51,5801
8,94.4914,94.4914,94.44,94.49,2225
9,94.47,94.54,94.4234,94.54,2118
10,94.59,94.6,94.51,94.53,4341
11,94.56,94.63,94.54,94.6,4800
12,94.665,94.7,94.6,94.6,1113
13,94.61,94.6999,94.61,94.64,2254
14,94.501,94.65,94.501,94.63,3600
15,94.44,94.51,94.44,94.49,4282
16,94.4,94.45,94.3,94.45,6900
17,94.43,94.46,94.37,94.4,2300
18,94.53,94.53,94.45,94.45,2789
19,94.585,94.5868,94.43,94.54,9650
20,94.66,94.7,94.55,94.56,4354
21,94.67,94.75,94.66,94.66,8063
22,94.66,94.68,94.57,94.65,5300
23,94.5,94.69,94.5,94.65,5550
24,94.62,94.66,94.51,94.52,4641
25,94.68,94.73,94.59,94.6,2800
26,94.72,94.8,94.57,94.69,8631
27,94.73,94.86,94.73,94.74,5192
28,94.8,94.85,94.69,94.69,6130
29,94.6152,94.82,94.6152,94.82,2850
30,94.77,94.77,94.59,94.64,4450
31,94.76,94.78,94.69,94.74,5250
32,94.77,94.81,94.7,94.77,2700
33,94.8,94.81,94.69,94.77,3800
34,94.77,94.83,94.75,94.8,3900
35,94.74,94.77,94.705,94.77,3928
36,94.78,94.81,94.71,94.74,3650
37,94.8,94.84,94.77,94.81,2324
38,94.86,94.92,94.83,94.83,21590
39,94.96,95,94.87,94.87,12336
40,94.91,94.9618,94.89,94.92,3100
41,94.91,94.91,94.85,94.89,2255
42,95.07,95.07,94.91,94.91,3850
43,95.04,95.08,95.03,95.08,6548
44,95.02,95.03,94.95,95.02,8195
45,95.025,95.06,95.01,95.02,10300
46,95.01,95.03,94.96,95.01,9800
47,95.1,95.1,94.985,95.01,9079
48,95.11,95.15,95.08,95.11,8611
49,95.15,95.15,95.06,95.095,5311
50,95.03,95.145,94.99,95.13,7900
51,95.02,95.05,94.98,95.03,6247
52,94.95,95.01,94.92,95.01,4008
53,94.95,94.95,94.91,94.93,2537
54,95.03,95.11,94.9,94.92,33079
55,95.29,95.46,95,95.02,124782
56,95.16,95.29,95.07,95.29,37973
57,95.12,95.14,95.01,95.14,15081
58,95.08,95.11,94.98,95.085,13111
59,95.18,95.18,95.04,95.09,15143
60,95.59,95.595,95.18,95.18,50324
61,95.4,95.65,95.38,95.61,26950
62,95.12,95.43,95.05,95.42,13418
63,95.18,95.22,95.13,95.16,4305
64,95.04,95.16,95.04,95.15,960
65,94.93,95.06,94.92,95.06,3200
66,95.03,95.05,94.89,94.92,3585
67,95.06,95.06,95,95,1200
68,94.96,95.03,94.9101,95.03,3700
69,94.871,95,94.87,94.931,4400
70,94.9,94.94,94.88,94.9,3700
71,94.8601,94.88,94.79,94.8604,7586
72,94.82,94.93,94.8,94.9,5342
73,94.785,94.81,94.73,94.8,5733
74,94.94,94.94,94.75,94.75,5300
75,94.92,94.98,94.85,94.98,4400
76,94.89,94.942,94.81,94.94,5429
77,94.81,94.89,94.81,94.86,4400
78,94.803,94.82,94.72,94.79,4272
79,94.81,94.845,94.76,94.83,2000
80,94.9,94.9,94.83,94.84,1350
81,94.945,94.945,94.88,94.89,2817
82,94.92,94.96,94.86,94.96,3600
83,94.93,94.98,94.9,94.97,5700
84,94.915,94.92,94.8575,94.9,1646
85,94.97,94.98,94.93,94.93,2700
86,95.07,95.07,94.98,94.98,3700
87,95.02,95.08,95.02,95.07,2100
88,95,95.04,94.96,95.02,1900
89,94.99,94.99,94.94,94.96,1200
90,95.1,95.1089,95.02,95.02,2633
91,95.18,95.18,95.1,95.12,1500
92,95.06,95.2,95.05,95.17,6343
93,95.06,95.1,95.025,95.08,2200
94,95.115,95.13,95.05,95.08,3406
95,95.065,95.16,95.05,95.11,3124
96,95.11,95.11,95.01,95.045,2492
97,95.16,95.17,95.11,95.13,2750
98,95.15,95.18,95.11,95.18,1600
99,95.2,95.2,95.09,95.12,4052
100,95.2,95.24,95.15,95.23,3101
101,95.2,95.25,95.2,95.21,1100
102,95.22,95.22,95.14,95.17,2100
103,95.22,95.22,95.19,95.19,400
104,95.17,95.21,95.1,95.21,3796
105,95.15,95.16,95.1,95.16,1850
106,95.11,95.15,95.11,95.15,1200
107,95.11,95.1287,95.11,95.1287,665
108,95.13,95.13,95.0575,95.085,1800
109,95.05,95.11,95.05,95.11,2600
110,95.03,95.055,95.01,95.04,1700
111,94.91,95.03,94.9,95.01,16550
112,94.86,94.94,94.86,94.92,3007
113,94.83,94.86,94.8,94.84,4140
114,94.847,94.9,94.79,94.81,2600
115,95.03,95.03,94.84,94.85,5964
116,95.04,95.04,94.98,95.01,4950
117,95.1,95.12,95.08,95.08,2052
118,95.1124,95.1124,95.06,95.1,2300
119,95.14,95.16,95.12,95.14,1200
120,95.1,95.16,95.04,95.16,2400
121,95.055,95.105,95.05,95.08,600
122,95.1,95.1,95.045,95.06,2100
123,95.03,95.095,95.01,95.08,2655
124,95.05,95.05,95.01,95.03,1900
125,95.04,95.06,95.02,95.06,1300
126,94.97,95.04,94.95,95.02,4190
127,94.945,94.97,94.91,94.9475,3900
128,94.99,94.99,94.94,94.96,2900
129,95.04,95.065,95.04,95.05,3380
130,95.04,95.045,94.99,95.02,8033
131,94.98,95.03,94.98,95.005,4503
132,95.035,95.04,94.995,94.995,600
133,95.02,95.05,95,95.05,4114
134,95.01,95.03,95.01,95.03,600
135,95.02,95.02,94.97,95.01,1000
136,95.06,95.08,95.0583,95.06,900
137,95.082,95.1,95.03,95.06,1998
138,95.02,95.1,95.01,95.09,2926
139,94.98,95.05,94.98,95.01,1588
140,94.95,94.96,94.91,94.96,1602
141,94.94,94.95,94.93,94.95,500
142,94.89,94.96,94.86,94.96,15656
143,94.86,94.9,94.83,94.9,2585
144,94.89,94.89,94.86,94.87,1800
145,94.88,94.89,94.85,94.89,1000
146,94.95,94.97,94.9,94.9,2200
147,94.97,94.97,94.92,94.93,920
148,95,95,94.98,94.99,900
149,94.98,95.02,94.95,95,2912
150,94.98,95.06,94.98,94.99,2908
151,95.07,95.14,94.98,94.98,4500
152,95.09,95.09,95.03,95.05,2400
153,95.08,95.12,95.08,95.12,1036
154,95.13,95.13,95.04,95.08,5600
155,95.22,95.22,95.09,95.1,1300
156,95.21,95.21,95.1,95.17,3700
157,95.17,95.26,95.15,95.21,5897
158,95.17,95.17,95.13,95.17,2000
159,95.21,95.22,95.15,95.18,13700
160,95.24,95.3,95.21,95.21,3138
161,95.25,95.3,95.23,95.26,2700
162,95.27,95.36,95.26,95.26,3750
163,95.33,95.33,95.27,95.27,1547
164,95.42,95.42,95.32,95.3495,1300
165,95.42,95.43,95.38,95.4,2300
166,95.47,95.47,95.3,95.44,45177
167,95.45,95.54,95.44,95.5,2900
168,95.515,95.52,95.44,95.4411,3870
169,95.5,95.51,95.5,95.501,1250
170,95.479,95.53,95.455,95.52,6266
171,95.46,95.51,95.46,95.49,2200
172,95.5,95.5,95.445,95.445,700
173,95.47,95.51,95.46,95.5,5733
174,95.47,95.47,95.44,95.46,1500
175,95.45,95.46,95.43,95.46,1500
176,95.44,95.45,95.44,95.45,500
177,95.5,95.5,95.41,95.44,7533
178,95.47,95.48,95.46,95.48,913
179,95.5,95.5,95.46,95.46,1251
180,95.52,95.52,95.5,95.51,1100
181,95.5,95.5415,95.48,95.5415,1602
182,95.47,95.5,95.46,95.48,2483
183,95.55,95.55,95.42,95.45,1901
184,95.52,95.53,95.51,95.53,1000
185,95.5379,95.5379,95.51,95.51,720
186,95.52,95.58,95.51,95.55,3150
187,95.5,95.5,95.44,95.5,11083
188,95.46,95.47,95.44,95.47,1500
189,95.41,95.45,95.41,95.45,1222
190,95.44,95.46,95.43,95.44,1700
191,95.4,95.455,95.37,95.455,1944
192,95.41,95.445,95.38,95.39,1929
193,95.43,95.46,95.42,95.43,2100
194,95.42,95.42,95.3684,95.4,7357
195,95.37,95.4,95.37,95.4,2094
196,95.34,95.39,95.34,95.37,1700
197,95.39,95.39,95.33,95.33,500
198,95.31,95.38,95.3,95.38,1641
199,95.32,95.32,95.26,95.29,2833
200,95.304,95.32,95.304,95.31,1500
201,95.29,95.315,95.25,95.3131,3327
202,95.31,95.32,95.3,95.3,600
203,95.34,95.34,95.29,95.3,1000
204,95.23,95.335,95.23,95.335,21224
205,95.255,95.28,95.21,95.21,2335
206,95.26,95.26,95.22,95.22,1600
207,95.26,95.26,95.22,95.25,2001
208,95.22,95.22,95.19,95.22,2100
209,95.19,95.25,95.18,95.22,2722
210,95.29,95.29,95.17,95.17,2375
211,95.31,95.31,95.22,95.27,2426
212,95.355,95.355,95.29,95.29,800
213,95.43,95.44,95.355,95.355,2735
214,95.4,95.4269,95.38,95.4269,794
215,95.41,95.41,95.35,95.3825,3469
216,95.43,95.47,95.43,95.43,920
217,95.53,95.53,95.46,95.47,3677
218,95.56,95.6,95.48,95.53,9800
219,95.64,95.644,95.59,95.59,20358
220,95.6,95.67,95.6,95.64,3783
221,95.62,95.62,95.54,95.6,4570
222,95.54,95.615,95.51,95.615,5000
223,95.5,95.535,95.48,95.51,4400
224,95.53,95.57,95.52,95.52,4400
225,95.58,95.63,95.53,95.54,9883
226,95.63,95.65,95.61,95.61,3722
227,95.61,95.66,95.58,95.65,7281
228,95.61,95.669,95.59,95.62,4000
229,95.6,95.61,95.55,95.58,3508
230,95.57,95.59,95.54,95.5851,5400
231,95.67,95.67,95.575,95.575,2800
232,95.635,95.7,95.635,95.68,3700
233,95.69,95.69,95.61,95.65,4805
234,95.6,95.7,95.6,95.6888,6230
235,95.61,95.65,95.6,95.615,6342
236,95.585,95.63,95.57,95.6,9642
237,95.52,95.59,95.43,95.59,7114
238,95.45,95.54,95.405,95.51,10500
239,95.49,95.52,95.43,95.4401,5840
240,95.55,95.55,95.495,95.495,2483
241,95.49,95.565,95.49,95.53,4357
242,95.51,95.51,95.47,95.49,3400
243,95.49,95.515,95.45,95.4926,5212
244,95.5599,95.6,95.49,95.49,3020
245,95.4,95.55,95.39,95.545,4506
246,95.4,95.43,95.36,95.42,5450
247,95.41,95.43,95.36,95.42,9450
248,95.3928,95.4084,95.3928,95.4084,364
249,95.44,95.4404,95.37,95.39,2500
250,95.32,95.46,95.3,95.41,8215
251,95.23,95.28,95.21,95.28,2145
252,95.26,95.31,95.24,95.24,5035
253,95.35,95.39,95.26,95.29,2800
254,95.36,95.46,95.32,95.35,7400
255,95.33,95.33,95.28,95.32,2600
256,95.27,95.32,95.24,95.32,2400
257,95.35,95.38,95.3,95.3,1138
258,95.32,95.35,95.31,95.35,1200
259,95.28,95.28,95.2288,95.26,1400
260,95.22,95.32,95.2,95.32,1600
261,95.275,95.275,95.24,95.24,1199
262,95.45,95.45,95.35,95.35,3183
263,95.36,95.45,95.36,95.425,1546
264,95.36,95.365,95.24,95.35,3900
265,95.3,95.4,95.26,95.4,8929
266,95.33,95.33,95.28,95.3,2647
267,95.34,95.4,95.34,95.37,1900
268,95.38,95.45,95.35,95.36,2145
269,95.45,95.46,95.41,95.43,1400
270,95.33,95.44,95.33,95.44,3912
271,95.44,95.45,95.26,95.34,5400
272,95.45,95.4821,95.42,95.45,1775
273,95.45,95.5,95.45,95.45,1900
274,95.35,95.45,95.35,95.45,3444
275,95.44,95.49,95.36,95.36,4600
276,95.46,95.53,95.42,95.45,3000
277,95.57,95.59,95.48,95.48,3600
278,95.53,95.67,95.53,95.59,9083
279,95.56,95.6,95.53,95.531,1826
280,95.53,95.59,95.49,95.59,3300
281,95.536,95.56,95.51,95.51,1325
282,95.55,95.55,95.48,95.51,3326
283,95.55,95.6,95.55,95.55,2300
284,95.48,95.54,95.47,95.54,1900
285,95.44,95.505,95.44,95.49,1600
286,95.45,95.46,95.42,95.42,2960
287,95.44,95.51,95.44,95.46,2500
288,95.49,95.52,95.41,95.44,3161
289,95.485,95.51,95.47,95.51,1632
290,95.62,95.62,95.5,95.5,2450
291,95.53,95.62,95.49,95.62,3100
292,95.54,95.61,95.5,95.5,2300
293,95.49,95.54,95.47,95.53,2015
294,95.4,95.48,95.39,95.47,8683
295,95.43,95.43,95.37,95.4,4419
296,95.4,95.42,95.36,95.38,1500
297,95.4,95.41,95.36,95.41,1400
298,95.434,95.46,95.42,95.42,1500
299,95.469,95.49,95.37,95.43,3300
300,95.49,95.52,95.45,95.45,1900
301,95.47,95.58,95.47,95.5,3500
302,95.52,95.59,95.4605,95.4605,2043
303,95.46,95.5,95.45,95.49,1900
304,95.44,95.44,95.39,95.44,2663
305,95.36,95.42,95.33,95.42,2400
306,95.43,95.43,95.34,95.38,1900
307,95.42,95.45,95.38,95.4,6126
308,95.44,95.44,95.44,95.44,100
309,95.43,95.45,95.39,95.45,1600
310,95.4288,95.44,95.4288,95.44,303
311,95.34,95.42,95.34,95.42,1300
312,95.37,95.37,95.34,95.34,1203
313,95.35,95.36,95.3,95.33,3123
314,95.32,95.33,95.29,95.33,1650
315,95.32,95.38,95.32,95.35,2200
316,95.25,95.33,95.24,95.28,1900
317,95.26,95.27,95.26,95.27,400
318,95.3,95.31,95.23,95.23,3150
319,95.26,95.32,95.26,95.2915,1560
320,95.23,95.27,95.22,95.26,1700
321,95.31,95.31,95.22,95.23,1202
322,95.27,95.29,95.27,95.29,500
323,95.23,95.24,95.205,95.24,2969
324,95.28,95.28,95.24,95.24,800
325,95.27,95.29,95.255,95.2748,6330
326,95.24,95.279,95.22,95.279,1605
327,95.27,95.28,95.2,95.23,24179
328,95.28,95.3299,95.26,95.3299,712
329,95.29,95.29,95.26,95.26,1300
330,95.31,95.31,95.26,95.27,3040
331,95.31,95.31,95.27,95.29,2073
332,95.28,95.28,95.27,95.28,1100
333,95.24,95.29,95.24,95.29,1100
334,95.24,95.28,95.23,95.24,2261
335,95.22,95.24,95.21,95.24,800
336,95.21,95.23,95.2,95.22,2118
337,95.25,95.25,95.22,95.22,3088
338,95.2315,95.26,95.2315,95.24,1436
339,95.21,95.2557,95.16,95.25,9021
340,95.2,95.25,95.2,95.22,1700
341,95.2225,95.2225,95.18,95.19,4900
342,95.32,95.32,95.21,95.21,3500
343,95.33,95.35,95.3,95.32,3300
344,95.37,95.37,95.29,95.33,6200
345,95.39,95.43,95.3601,95.41,9375
346,95.43,95.44,95.37,95.39,3232
347,95.35,95.43,95.35,95.42,5880
348,95.37,95.41,95.36,95.36,3037
349,95.38,95.41,95.35,95.38,2900
350,95.37,95.38,95.35,95.35,3700
351,95.5,95.5,95.38,95.38,6007
352,95.52,95.52,95.48,95.52,6351
353,95.53,95.55,95.46,95.51,11350
354,95.57,95.62,95.54,95.54,7964
355,95.55,95.6,95.54,95.58,4619
356,95.55,95.6,95.54,95.56,3700
357,95.58,95.6,95.55,95.5586,5704
358,95.655,95.67,95.58,95.58,6196
359,95.66,95.66,95.61,95.65,4100
360,95.66,95.7,95.65,95.66,6938
361,95.63,95.67,95.6,95.66,5576
362,95.59,95.68,95.59,95.63,8112
363,95.61,95.63,95.58,95.6,7800
364,95.56,95.65,95.56,95.61,8993
365,95.65,95.67,95.58,95.58,11205
366,95.67,95.7,95.64,95.64,10368
367,95.74,95.77,95.65,95.65,7016
368,95.78,95.79,95.73,95.74,4500
369,95.79,95.82,95.76,95.76,5892
370,95.79,95.79,95.73,95.79,6567
371,95.72,95.79,95.7086,95.79,8486
372,95.62,95.72,95.62,95.72,8914
373,95.65,95.65,95.6172,95.62,9642
374,95.71,95.72,95.64,95.65,9966
375,95.77,95.77,95.71,95.72,14021
376,95.68,95.77,95.64,95.77,15454
377,95.78,95.78,95.685,95.685,12684
378,95.83,95.85,95.79,95.8,14905
379,95.82,95.87,95.81,95.84,12446
380,95.87,95.87,95.81,95.81,11574
381,95.84,95.9,95.84,95.86,12946
382,95.8,95.87,95.78,95.85,13290
383,95.86,95.87,95.78,95.8,12849
384,95.85,95.88,95.83,95.845,13901
385,95.8201,95.84,95.81,95.84,11164
386,95.85,95.89,95.83,95.83,24337
387,95.85,95.9,95.83,95.87,22934
388,95.89,95.89,95.84,95.85,22301
389,95.97,95.98,95.87,95.87,35715
390,95.98,95.99,95.9,95.96,52101
