PPG,PPG Industries,Materials,8,Specialty Chemicals,27225332541,1269637
a1501162200,106.83,106.83,106.83,106.83,10289
1,107.03,107.11,107.03,107.11,200
2,107.1,107.17,106.865,107,2900
3,107.11,107.11,106.965,107.1,1400
4,106.99,107.19,106.99,107.07,5320
5,106.92,106.96,106.87,106.96,1400
6,107.05,107.09,106.99,106.99,3300
7,106.97,107.125,106.94,107.03,3700
8,106.94,107.005,106.91,107.005,3632
9,106.88,106.945,106.83,106.945,2100
10,106.91,106.91,106.87,106.89,1400
11,106.77,106.95,106.75,106.92,4500
12,106.76,106.88,106.76,106.85,2400
13,106.83,106.83,106.76,106.77,1000
14,106.83,106.83,106.795,106.83,400
15,106.81,106.9176,106.8,106.8,1811
16,106.75,106.81,106.75,106.79,3600
17,106.58,106.78,106.58,106.78,2481
18,106.67,106.67,106.61,106.62,500
19,106.62,106.63,106.58,106.63,3463
20,106.65,106.65,106.65,106.65,900
21,106.67,106.69,106.65,106.68,1100
22,106.58,106.65,106.58,106.65,600
23,106.52,106.57,106.52,106.57,1600
24,106.62,106.62,106.51,106.525,2700
25,106.61,106.63,106.61,106.63,2100
26,106.6009,106.6009,106.6009,106.6009,200
27,106.54,106.59,106.54,106.58,1400
28,106.52,106.55,106.52,106.53,500
29,106.52,106.55,106.52,106.55,300
30,106.44,106.49,106.4,106.48,1800
31,106.45,106.51,106.44,106.47,5600
32,106.43,106.505,106.43,106.45,3600
33,106.43,106.51,106.43,106.435,4053
34,106.44,106.44,106.37,106.43,2100
35,106.38,106.44,106.38,106.41,1500
36,106.23,106.35,106.2,106.34,3700
37,106.23,106.3,106.21,106.21,4800
38,106.265,106.29,106.235,106.24,998
39,106.23,106.25,106.23,106.25,300
40,106.2,106.22,106.19,106.2,2307
41,106.2,106.22,106.19,106.1942,3100
42,106.2,106.22,106.19,106.205,1722
43,106.17,106.21,106.13,106.21,2200
44,106.25,106.25,106.17,106.17,1800
45,106.215,106.24,106.21,106.24,2020
46,106.3,106.3,106.2,106.215,3830
47,106.31,106.32,106.3,106.3,300
48,106.31,106.325,106.27,106.325,1100
49,106.28,106.33,106.28,106.32,4209
50,106.275,106.28,106.245,106.27,4300
51,106.25,106.29,106.24,106.275,4075
52,106.22,106.27,106.22,106.245,4700
53,106.29,106.29,106.22,106.22,2011
54,106.235,106.31,106.22,106.3,2900
55,106.25,106.27,106.21,106.235,2050
57,106.28,106.28,106.245,106.26,6034
58,106.3,106.3,106.26,106.27,1619
59,106.305,106.32,106.3,106.3068,500
60,106.275,106.31,106.22,106.305,29444
61,106.35,106.35,106.29,106.29,2857
62,106.3,106.33,106.3,106.32,1100
63,106.315,106.345,106.3,106.3,1400
64,106.285,106.315,106.285,106.315,500
65,106.295,106.32,106.295,106.295,1313
66,106.34,106.35,106.32,106.33,2000
67,106.34,106.38,106.33,106.35,5020
68,106.32,106.35,106.32,106.35,900
69,106.37,106.39,106.32,106.33,17407
70,106.36,106.37,106.36,106.37,2100
71,106.32,106.33,106.32,106.33,300
72,106.28,106.315,106.27,106.315,1100
73,106.3,106.315,106.275,106.29,3000
74,106.28,106.32,106.28,106.3,1600
75,106.295,106.31,106.28,106.28,2600
76,106.32,106.32,106.305,106.305,200
77,106.27,106.32,106.245,106.32,6600
78,106.28,106.28,106.26,106.27,500
79,106.3,106.3,106.285,106.285,600
80,106.32,106.33,106.305,106.31,800
81,106.2708,106.32,106.27,106.32,4867
82,106.235,106.265,106.21,106.26,6572
83,106.19,106.25,106.181,106.23,8841
84,106.32,106.32,106.205,106.21,3600
85,106.32,106.32,106.32,106.32,100
86,106.35,106.44,106.32,106.33,5020
87,106.35,106.365,106.35,106.35,500
88,106.335,106.35,106.33,106.35,1920
89,106.31,106.31,106.31,106.31,100
90,106.33,106.37,106.3238,106.3238,5500
91,106.3,106.32,106.3,106.32,700
92,106.33,106.33,106.3,106.315,2571
93,106.3468,106.3468,106.3468,106.3468,100
94,106.31,106.34,106.31,106.34,819
95,106.26,106.31,106.26,106.31,1300
96,106.29,106.29,106.25,106.25,1600
97,106.29,106.33,106.255,106.29,1238
98,106.2601,106.2838,106.2601,106.2838,568
99,106.25,106.28,106.25,106.28,2110
100,106.22,106.25,106.215,106.23,1500
101,106.2,106.22,106.2,106.22,700
102,106.13,106.19,106.13,106.18,3500
103,106.19,106.2271,106.16,106.16,3954
104,106.225,106.225,106.2,106.2,500
105,106.24,106.24,106.24,106.24,100
106,106.225,106.225,106.21,106.21,300
107,106.2,106.22,106.2,106.21,1800
108,106.16,106.18,106.155,106.18,1400
109,106.04,106.17,106.04,106.16,10200
110,106.07,106.07,106.07,106.07,300
111,106.04,106.06,106.04,106.06,1100
112,105.965,106.02,105.965,106.01,1800
113,105.95,106,105.94,105.98,2702
114,105.8801,105.98,105.8801,105.955,1700
115,105.915,105.92,105.88,105.895,2600
116,105.91,105.94,105.8801,105.93,3461
117,105.87,105.93,105.86,105.92,3825
118,105.805,105.87,105.77,105.87,3100
119,105.815,105.83,105.8,105.83,450
120,105.82,105.82,105.8,105.82,700
121,105.76,105.83,105.76,105.83,4656
122,105.78,105.79,105.75,105.77,989
123,105.76,105.785,105.76,105.77,1500
124,105.76,105.76,105.74,105.74,1590
125,105.755,105.76,105.75,105.75,400
126,105.85,105.87,105.755,105.76,4150
127,105.9,105.9,105.885,105.885,300
128,105.93,105.93,105.885,105.885,600
129,105.965,105.98,105.93,105.93,13013
130,106,106,105.97,105.98,6000
131,106.08,106.095,106.02,106.03,3325
132,106.11,106.115,106.1,106.11,500
133,106.08,106.14,106.08,106.115,4200
134,105.99,106.06,105.99,106.06,1200
135,105.99,106.01,105.99,105.99,1150
137,106.035,106.05,106.035,106.05,200
138,106.06,106.06,106.035,106.05,1700
139,106.022,106.06,106.022,106.06,3230
140,105.99,106.02,105.975,106.02,2450
141,106.02,106.02,106.01,106.01,1000
142,106.03,106.04,106.025,106.025,500
143,106.06,106.06,106.035,106.04,2475
144,106.07,106.07,106.07,106.07,300
145,106.055,106.07,106.055,106.07,1151
146,106.065,106.07,106.05,106.06,1547
147,106.08,106.08,106.075,106.075,500
148,106.1,106.11,106.095,106.11,700
149,106.11,106.11,106.11,106.11,300
150,106.09,106.11,106.07,106.11,3724
151,106.14,106.14,106.09,106.09,5500
152,106.14,106.16,106.14,106.15,1925
153,106.12,106.15,106.12,106.15,1601
154,106.095,106.11,106.095,106.11,1619
155,106.09,106.1,106.09,106.1,600
156,106.07,106.07,106.07,106.07,1972
157,106.104,106.12,106.09,106.09,3175
158,106.095,106.11,106.08,106.11,1900
160,106.12,106.12,106.1,106.12,600
161,106.11,106.12,106.11,106.12,500
162,106.11,106.11,106.08,106.11,2500
163,106.12,106.12,106.11,106.11,1300
164,106.105,106.12,106.105,106.12,1351
166,106.09,106.12,106.09,106.12,500
167,106.09,106.12,106.09,106.12,2500
168,106.07,106.09,106.07,106.09,1100
169,106.08,106.08,106.07,106.07,400
170,106.06,106.08,106.06,106.07,1300
171,106.07,106.07,106.07,106.07,700
172,106.09,106.09,106.08,106.08,2130
173,106.09,106.11,106.09,106.1,1440
175,106.11,106.12,106.1,106.11,1100
176,106.11,106.11,106.1,106.11,1500
177,106.12,106.12,106.12,106.12,200
178,106.11,106.12,106.1,106.119,2120
179,106.14,106.14,106.115,106.115,2700
180,106.13,106.14,106.13,106.13,2200
181,106.14,106.14,106.13,106.13,1100
182,106.09,106.13,106.09,106.12,2906
183,106.085,106.1,106.06,106.09,3200
184,106.1,106.12,106.085,106.1,3160
185,106.0977,106.1,106.08,106.09,1831
186,106.0497,106.095,106.04,106.07,1200
187,106.05,106.05,106.03,106.05,800
188,106.06,106.06,106.03,106.03,2600
189,106.05,106.05,106.02,106.05,3700
190,106.05,106.07,106.05,106.06,3135
191,106.06,106.06,106.04,106.04,1200
192,106.04,106.06,106.04,106.06,1195
193,106.065,106.09,106.05,106.06,2200
194,106.06,106.07,106.06,106.07,1032
195,106.04,106.04,106.03,106.03,300
196,106.06,106.07,106.04,106.04,1700
197,106.05,106.05,106.04,106.05,1500
198,106.06,106.06,106.03,106.03,1500
199,106.04,106.065,106.04,106.065,1500
200,106.03,106.06,106.03,106.05,1550
201,106.06,106.06,106.04,106.04,1100
202,106.03,106.06,106.03,106.06,3099
203,106.03,106.04,106.03,106.03,800
204,105.94,106.03,105.94,106.03,44722
205,105.95,105.96,105.925,105.96,2472
206,105.96,105.96,105.94,105.9549,1615
207,105.95,105.98,105.95,105.97,1700
208,105.89,105.95,105.89,105.95,3814
209,105.84,105.8846,105.83,105.8846,2881
210,105.865,105.885,105.865,105.885,200
212,105.91,105.91,105.86,105.86,4100
213,105.93,105.94,105.915,105.92,2825
214,105.83,105.92,105.83,105.92,3504
215,105.795,105.8425,105.79,105.8326,3495
216,105.82,105.82,105.8046,105.8046,400
217,105.76,105.8,105.76,105.8,1772
218,105.75,105.7675,105.72,105.7675,3795
219,105.79,105.79,105.7337,105.7337,2837
220,105.82,105.82,105.78,105.79,3000
221,105.8,105.85,105.8,105.84,2024
222,105.82,105.83,105.805,105.81,1550
223,105.83,105.83,105.82,105.82,1600
224,105.87,105.87,105.84,105.85,1000
225,105.84,105.86,105.84,105.86,1550
226,105.84,105.86,105.83,105.84,2905
227,105.84,105.855,105.82,105.855,2800
228,105.84,105.87,105.83,105.84,4483
229,105.85,105.87,105.85,105.86,1100
230,105.87,105.88,105.84,105.86,1800
231,105.89,105.91,105.88,105.88,2900
232,105.81,105.89,105.81,105.89,4239
233,105.82,105.84,105.8,105.825,6533
234,105.81,105.83,105.8,105.815,2700
235,105.7996,105.82,105.77,105.82,2530
236,105.68,105.8,105.68,105.77,6177
237,105.6,105.68,105.6,105.68,3450
238,105.52,105.635,105.5,105.6,3750
239,105.54,105.54,105.49,105.515,6030
240,105.545,105.55,105.52,105.55,3197
241,105.55,105.57,105.55,105.565,1900
242,105.55,105.56,105.54,105.56,2500
243,105.52,105.54,105.49,105.54,3900
244,105.51,105.555,105.51,105.52,5200
245,105.51,105.56,105.51,105.52,950
246,105.56,105.57,105.51,105.51,3000
247,105.52,105.56,105.485,105.56,6505
248,105.54,105.57,105.535,105.55,1605
249,105.555,105.57,105.54,105.54,1989
250,105.53,105.59,105.53,105.58,2011
251,105.57,105.58,105.54,105.56,1509
252,105.6,105.6,105.57,105.58,800
253,105.62,105.62,105.535,105.58,2500
254,105.8018,105.8018,105.61,105.61,12664
255,105.7,105.78,105.7,105.78,6153
256,105.75,105.75,105.715,105.74,1555
257,105.76,105.76,105.76,105.76,300
258,105.82,105.82,105.78,105.82,2100
259,105.8,105.8075,105.795,105.8075,300
260,105.79,105.8,105.78,105.8,2000
261,105.79,105.8,105.77,105.79,2850
262,105.79,105.79,105.78,105.79,1300
263,105.77,105.805,105.77,105.77,1900
264,105.745,105.7825,105.7,105.7825,3788
265,105.71,105.76,105.71,105.73,3351
266,105.74,105.77,105.72,105.72,1005
267,105.78,105.79,105.75,105.76,5775
268,105.79,105.805,105.77,105.78,10500
269,105.79,105.79,105.735,105.775,4580
270,105.81,105.82,105.72,105.7923,22067
271,105.84,105.84,105.79,105.81,2900
272,105.85,105.87,105.81,105.82,4400
273,105.93,105.95,105.875,105.875,2700
274,105.86,105.91,105.86,105.91,2605
275,105.89,105.915,105.8701,105.8701,4599
276,105.91,105.935,105.89,105.8999,2167
277,105.96,105.96,105.91,105.93,1500
278,105.98,105.98,105.955,105.97,1400
279,105.91,105.975,105.91,105.975,4300
280,105.905,105.92,105.85,105.9,2700
281,105.905,105.92,105.891,105.9,775
282,105.93,105.95,105.93,105.94,400
283,105.98,105.99,105.95,105.97,2402
284,105.96,105.98,105.96,105.96,1692
285,105.89,105.97,105.89,105.96,4676
286,105.92,105.94,105.9,105.9,1916
287,105.92,105.92,105.905,105.905,1300
288,105.97,105.97,105.94,105.94,1500
289,105.99,105.99,105.97,105.97,13100
290,105.97,105.99,105.95,105.96,4045
291,106.01,106.02,105.97,105.98,47960
292,105.99,106.01,105.98,106,3009
293,106.01,106.01,106.01,106.01,110
294,105.995,105.995,105.995,105.995,100
295,105.84,105.98,105.84,105.98,3341
296,105.89,105.89,105.84,105.86,2900
297,105.97,105.97,105.91,105.91,1723
298,105.92,105.97,105.92,105.97,1900
299,105.9,105.9,105.85,105.89,5549
300,105.915,105.95,105.91,105.91,1700
301,106.02,106.05,105.94,105.94,10651
302,106.05,106.05,106.01,106.02,3700
303,106.1,106.1,106.07,106.07,500
304,106.12,106.16,106.11,106.14,2798
305,106.02,106.11,106.02,106.11,2600
306,106.05,106.06,106.01,106.02,19600
307,106.075,106.09,106.045,106.06,1200
308,106.11,106.11,106.085,106.085,2006
309,106.1072,106.15,106.1072,106.13,4396
310,106.13,106.13,106.115,106.115,500
311,106.025,106.1,106.02,106.1,2700
312,106,106.045,105.9952,106.02,4303
313,105.93,105.99,105.93,105.98,1900
314,105.955,105.96,105.94,105.94,2806
315,105.89,105.94,105.88,105.94,1772
316,105.89,105.93,105.89,105.91,1700
317,105.94,105.95,105.91,105.92,5666
318,105.95,105.96,105.935,105.935,2856
319,105.95,105.96,105.95,105.96,600
320,105.89,105.945,105.89,105.945,2600
321,105.92,105.93,105.895,105.91,1700
322,105.92,105.93,105.92,105.92,2434
323,105.89,105.9312,105.89,105.92,2543
324,105.92,105.92,105.905,105.92,3405
325,105.92,105.93,105.92,105.93,700
326,105.96,105.96,105.94,105.94,1900
327,105.96,105.97,105.94,105.955,3500
328,105.97,105.98,105.965,105.97,3100
329,105.98,105.98,105.98,105.98,900
330,105.98,105.99,105.97,105.99,500
331,105.885,105.98,105.86,105.975,8704
332,105.88,105.88,105.87,105.88,700
333,105.82,105.875,105.82,105.875,7514
334,105.83,105.84,105.82,105.82,2201
335,105.795,105.82,105.78,105.81,1800
336,105.845,105.845,105.8,105.81,3815
337,105.86,105.86,105.85,105.85,2000
338,105.78,105.85,105.76,105.85,3293
339,105.75,105.79,105.73,105.79,3100
340,105.74,105.75,105.73,105.75,3484
341,105.72,105.75,105.69,105.74,26025
342,105.63,105.73,105.63,105.73,6676
343,105.71,105.71,105.625,105.64,2800
344,105.705,105.72,105.69,105.72,6021
345,105.71,105.72,105.7,105.7,5814
346,105.71,105.72,105.705,105.72,4704
347,105.775,105.78,105.71,105.71,2100
348,105.765,105.79,105.765,105.78,2300
349,105.74,105.77,105.74,105.77,2500
350,105.75,105.76,105.75,105.76,600
351,105.76,105.76,105.735,105.75,4803
352,105.8,105.8,105.75,105.75,2067
353,105.88,105.88,105.795,105.8,2400
354,105.87,105.88,105.87,105.88,1000
355,105.86,105.89,105.84,105.89,4633
356,105.84,105.84,105.81,105.84,3550
357,105.88,105.88,105.84,105.84,1121
358,105.855,105.87,105.84,105.87,3936
359,105.9,105.9,105.86,105.87,2300
360,105.945,105.945,105.91,105.91,1800
361,105.98,105.98,105.94,105.945,2400
362,105.99,105.99,105.955,105.99,6513
363,105.98,105.99,105.98,105.985,1700
364,106.01,106.02,105.99,105.99,1900
365,106.045,106.06,106.02,106.02,3200
366,106.09,106.09,106.04,106.06,6080
367,106.11,106.11,106.0972,106.0972,400
368,106.14,106.15,106.1,106.1,5800
369,106.08,106.13,106.08,106.13,6027
370,106.08,106.095,106.06,106.07,7200
371,106.0275,106.07,106.02,106.07,4175
372,105.95,106.02,105.95,106.02,4421
373,105.93,105.945,105.91,105.945,4357
374,105.98,105.98,105.92,105.93,6304
375,106.02,106.06,105.99,106,5400
376,106.08,106.1,106.05,106.05,5134
377,106.14,106.14,106.085,106.085,4885
378,106.12,106.16,106.12,106.15,8958
379,106.11,106.12,106.1,106.11,5197
380,106.07,106.115,106.07,106.11,5836
381,106.095,106.1,106.07,106.07,9741
382,106.04,106.09,106.04,106.09,4917
383,106.03,106.06,106.02,106.04,7042
384,106.005,106.02,106,106.02,5606
385,106.07,106.07,106,106,9076
386,106.095,106.13,106.08,106.08,10494
387,106.04,106.1,106.04,106.095,7098
388,106.005,106.065,105.99,106.05,14005
389,106.11,106.11,106.03,106.03,11213
390,106.19,106.19,106.08,106.1,24535
