EOG,EOG Resources,Energy,3,Oil & Gas Exploration & Production,52433332983,3109367
a1495114200,92.13,92.23,92.13,92.23,37760
1,92.31,92.34,92.13,92.13,11350
2,92.57,92.65,92.31,92.31,7900
3,92.77,92.77,92.59,92.59,5386
4,92.6,92.79,92.32,92.77,18955
5,92.73,92.73,92.49,92.51,5922
6,92.69,92.9,92.58,92.73,11484
7,92.73,92.74,92.66,92.71,2400
8,92.73,92.84,92.7,92.74,5463
9,92.88,92.93,92.73,92.73,6550
10,92.86,92.88,92.78,92.87,5900
11,92.73,92.91,92.7,92.82,8224
12,92.597,92.79,92.57,92.79,8246
13,92.679,92.7,92.617,92.66,2320
14,92.57,92.68,92.57,92.68,2200
15,92.51,92.63,92.47,92.54,5150
16,92.28,92.53,92.28,92.53,5900
17,92.41,92.49,92.2775,92.29,7216
18,92.44,92.51,92.415,92.43,6481
19,92.35,92.45,92.28,92.45,3800
20,92.235,92.34,92.235,92.34,3624
21,92.26,92.34,92.21,92.245,10100
22,92.2,92.28,92.2,92.24,1900
23,91.96,92.21,91.96,92.19,6794
24,91.89,92,91.87,91.96,7148
25,92.05,92.07,91.88,91.88,8200
26,91.94,92.0285,91.88,92.0285,9920
27,91.9,91.96,91.88,91.93,6200
28,91.83,91.915,91.77,91.85,5550
29,91.88,91.88,91.77,91.82,9242
30,91.99,92.02,91.8989,91.9,15043
31,92.35,92.41,91.98,91.98,30882
32,92.58,92.6,92.33,92.39,30488
33,92.62,92.8814,92.61,92.61,31687
34,92.3799,92.64,92.375,92.64,4618
35,92.42,92.42,92.29,92.36,7902
36,92.45,92.5,92.34,92.42,7297
37,92.62,92.62,92.42,92.45,6995
38,92.75,92.75,92.58,92.62,9507
39,92.62,92.75,92.62,92.72,2800
40,92.68,92.68,92.58,92.6,10256
41,92.605,92.66,92.59,92.65,2602
42,92.56,92.6,92.52,92.6,15119
43,92.5297,92.55,92.5,92.545,9001
44,92.51,92.61,92.51,92.52,6900
45,92.44,92.49,92.404,92.48,3500
46,92.39,92.45,92.36,92.44,2900
47,92.48,92.53,92.37,92.375,10105
48,92.44,92.51,92.42,92.47,3499
49,92.51,92.5433,92.4,92.45,7623
50,92.62,92.62,92.49,92.49,3471
51,92.505,92.65,92.505,92.64,5002
52,92.6,92.6,92.51,92.51,6600
53,92.53,92.64,92.49,92.62,7427
54,92.58,92.6,92.5,92.53,9298
55,92.49,92.56,92.46,92.56,4634
56,92.52,92.575,92.5,92.51,6200
57,92.72,92.72,92.53,92.53,2901
58,92.684,92.71,92.65,92.71,3918
59,92.7619,92.7619,92.65,92.7,5389
60,92.63,92.78,92.59,92.75,6883
61,92.76,92.77,92.61,92.64,7600
62,92.8,92.84,92.76,92.8,5801
63,92.77,92.82,92.745,92.78,3544
64,92.8,92.83,92.8,92.83,2000
65,92.89,92.92,92.825,92.84,8497
66,92.894,93.015,92.894,92.92,4800
67,92.86,92.88,92.79,92.88,6178
68,92.68,92.86,92.68,92.86,4400
69,92.58,92.67,92.58,92.67,5153
70,92.54,92.59,92.491,92.56,4429
71,92.47,92.56,92.47,92.535,3002
72,92.44,92.55,92.44,92.445,7200
73,92.51,92.52,92.465,92.49,3800
74,92.58,92.62,92.52,92.54,5073
75,92.61,92.61,92.53,92.54,2708
76,92.61,92.63,92.56,92.6,8429
77,92.71,92.71,92.58,92.654,4352
78,92.69,92.74,92.69,92.7,2327
79,92.6495,92.73,92.6474,92.73,5978
80,92.59,92.65,92.59,92.63,5175
81,92.56,92.63,92.56,92.605,3637
82,92.427,92.59,92.427,92.58,3732
83,92.35,92.4264,92.3,92.4264,4991
84,92.39,92.44,92.36,92.36,3500
85,92.45,92.46,92.34,92.385,6004
86,92.45,92.46,92.44,92.455,800
87,92.45,92.51,92.45,92.45,3085
88,92.45,92.54,92.44,92.475,4677
89,92.53,92.55,92.44,92.455,4604
90,92.49,92.5309,92.47,92.53,4687
91,92.5057,92.52,92.43,92.48,3800
92,92.54,92.56,92.49,92.5,8791
93,92.5301,92.58,92.5144,92.56,8192
94,92.53,92.54,92.5,92.53,1378
95,92.65,92.65,92.54,92.54,8800
96,92.61,92.68,92.61,92.66,5960
97,92.54,92.62,92.54,92.6,1200
98,92.54,92.5899,92.535,92.57,4349
99,92.4,92.52,92.4,92.52,1600
100,92.42,92.43,92.365,92.4,3200
101,92.45,92.5,92.45,92.48,1900
102,92.45,92.55,92.45,92.47,3404
103,92.5,92.5,92.44,92.45,3050
104,92.4,92.47,92.4,92.47,3009
105,92.3547,92.42,92.35,92.39,10911
106,92.48,92.51,92.38,92.38,3200
107,92.53,92.54,92.45,92.455,4890
108,92.51,92.56,92.51,92.56,1100
109,92.5,92.52,92.49,92.5,2300
110,92.51,92.54,92.47,92.49,10750
111,92.445,92.51,92.445,92.505,6565
112,92.54,92.58,92.49,92.49,5625
113,92.63,92.66,92.54,92.54,2645
114,92.65,92.73,92.61,92.66,5727
115,92.55,92.65,92.55,92.615,13854
116,92.55,92.6,92.49,92.54,27108
117,92.52,92.59,92.46,92.58,3728
118,92.44,92.58,92.44,92.52,3975
119,92.48,92.56,92.44,92.46,6700
120,92.47,92.48,92.445,92.48,2000
121,92.47,92.53,92.45,92.47,12570
122,92.49,92.55,92.49,92.5,3900
123,92.56,92.58,92.49,92.49,5350
124,92.52,92.6,92.52,92.55,7900
125,92.57,92.58,92.5,92.52,3600
126,92.55,92.6,92.54,92.56,13615
127,92.54,92.6,92.54,92.5663,8040
128,92.5,92.5582,92.48,92.54,9900
129,92.45,92.51,92.44,92.51,3532
130,92.38,92.44,92.37,92.44,3056
131,92.4,92.46,92.4,92.4,6001
132,92.395,92.44,92.38,92.39,30282
133,92.46,92.5,92.395,92.41,6254
134,92.47,92.51,92.47,92.48,2850
135,92.39,92.46,92.39,92.46,3450
136,92.5,92.53,92.38,92.395,9350
137,92.47,92.5,92.46,92.49,2800
138,92.4856,92.5,92.44,92.5,3916
139,92.53,92.53,92.5,92.51,2900
140,92.5,92.54,92.48,92.52,7201
141,92.485,92.51,92.47,92.49,4400
142,92.5,92.55,92.5,92.5,5309
143,92.54,92.55,92.51,92.52,4780
144,92.51,92.55,92.5,92.54,6901
145,92.52,92.55,92.5,92.5,4700
146,92.55,92.57,92.5,92.52,4692
147,92.49,92.54,92.47,92.54,4685
148,92.41,92.48,92.41,92.48,1670
149,92.45,92.46,92.4,92.43,3092
150,92.41,92.45,92.41,92.45,4450
151,92.48,92.53,92.405,92.42,8379
152,92.44,92.46,92.43,92.46,4100
153,92.42,92.46,92.42,92.45,4200
154,92.39,92.41,92.37,92.41,5575
155,92.39,92.42,92.35,92.42,3700
156,92.47,92.49,92.41,92.41,3900
157,92.41,92.5,92.4,92.47,9400
158,92.3658,92.39,92.3658,92.39,755
159,92.39,92.41,92.36,92.37,4583
160,92.37,92.43,92.37,92.383,7437
161,92.4062,92.4062,92.335,92.38,5223
162,92.42,92.44,92.4,92.4,2190
163,92.37,92.41,92.37,92.41,2609
164,92.44,92.46,92.41,92.41,2500
165,92.43,92.49,92.42,92.42,4122
166,92.49,92.49,92.44,92.44,900
167,92.43,92.49,92.41,92.48,4271
168,92.39,92.4,92.38,92.4,3027
169,92.32,92.38,92.32,92.38,1950
170,92.27,92.34,92.23,92.33,3727
171,92.28,92.32,92.25,92.28,4324
172,92.25,92.3,92.25,92.3,2301
173,92.28,92.3,92.25,92.27,8346
174,92.22,92.28,92.21,92.28,4063
175,92.2,92.25,92.2,92.21,4722
176,92.24,92.24,92.2,92.23,4818
177,92.28,92.3,92.23,92.24,3598
178,92.28,92.29,92.24,92.27,3700
179,92.28,92.3,92.27,92.29,3834
180,92.28,92.3,92.27,92.27,6675
181,92.34,92.35,92.27,92.28,4812
182,92.39,92.39,92.31,92.32,9555
183,92.39,92.41,92.37,92.38,3001
184,92.41,92.44,92.37,92.38,8923
185,92.39,92.45,92.37,92.425,5350
186,92.365,92.37,92.33,92.36,3392
187,92.35,92.38,92.35,92.37,2219
188,92.31,92.365,92.3,92.35,2300
189,92.29,92.34,92.29,92.32,5010
190,92.27,92.29,92.22,92.29,5100
191,92.32,92.34,92.26,92.26,4050
192,92.27,92.3,92.24,92.3,8289
193,92.22,92.27,92.22,92.27,25357
194,92.2308,92.26,92.18,92.215,7611
195,92.26,92.28,92.23,92.26,5050
196,92.25,92.28,92.21,92.23,7202
197,92.24,92.27,92.23,92.24,3415
198,92.17,92.25,92.15,92.25,1700
199,92.14,92.19,92.11,92.16,5745
200,92.1,92.16,92.07,92.15,4500
201,92.06,92.12,92.06,92.12,5070
202,92.06,92.07,92.02,92.07,3492
203,92.07,92.11,92.05,92.06,6401
204,92.03,92.1,92.03,92.08,2782
205,91.99,92.04,91.99,92.03,4611
206,92.04,92.06,91.995,91.995,4438
207,92.09,92.11,92.03,92.03,10801
208,92.06,92.095,92.05,92.095,6501
209,92.09,92.1,92.06,92.06,1900
210,92.13,92.13,92.09,92.1,3200
211,92.16,92.16,92.12,92.13,5884
212,92.19,92.2,92.15,92.15,4600
213,92.1599,92.19,92.14,92.19,6329
214,92.11,92.15,92.1,92.15,4558
215,92.13,92.13,92.08,92.11,6236
216,92.14,92.15,92.06,92.13,8007
217,92.075,92.13,92.06,92.13,4200
218,92.07,92.07,92.05,92.06,4519
219,92.0399,92.07,91.99,92.06,5392
220,92.01,92.02,91.92,92.02,11201
221,92.09,92.09,92.0032,92.0032,5710
222,92.08,92.1,92.065,92.085,2800
223,92.07,92.1,92.07,92.09,7109
224,92.045,92.1,92.03,92.08,7114
225,92.01,92.06,92.01,92.06,2300
226,92.01,92.01,91.96,91.99,21700
227,92.11,92.12,92.035,92.04,4500
228,92.12,92.15,92.1,92.1,2231
229,92.2,92.2,92.09,92.103,8373
230,92.15,92.2,92.15,92.2,4391
231,92.06,92.155,92.06,92.155,3495
232,92.03,92.08,92.03,92.06,3651
233,92,92.045,92,92.045,3050
234,92.0251,92.07,91.98,92,15839
235,92.01,92.07,92.01,92.05,6100
236,92.03,92.03,91.98,92.01,4183
237,92.02,92.03,91.98,92.03,6760
238,92,92.0213,91.99,92.0213,8981
239,92,92.02,91.985,91.995,4688
240,92.02,92.06,92.01,92.01,4030
241,92.01,92.03,91.99,92.02,4100
242,92.01,92.02,91.98,92.01,6070
243,91.985,92,91.95,92,9214
244,92.0359,92.0359,91.98,91.985,9949
245,91.97,92.0601,91.97,92.05,5635
246,91.95,92.03,91.9445,91.995,10896
247,91.975,91.99,91.915,91.97,9583
248,92.01,92.03,91.97,91.975,6015
249,91.97,91.995,91.955,91.995,6735
250,91.94,91.98,91.94,91.97,4450
251,91.94,91.96,91.93,91.93,3993
252,91.92,91.96,91.91,91.93,9823
253,91.9,91.94,91.9,91.91,5025
254,91.87,91.92,91.86,91.9,6213
255,91.9,91.94,91.87,91.87,4816
256,91.89,91.93,91.88,91.915,5775
257,91.85,91.895,91.85,91.88,2020
258,91.79,91.84,91.79,91.84,4825
259,91.77,91.79,91.77,91.79,2918
260,91.755,91.77,91.71,91.77,7809
261,91.77,91.78,91.7401,91.76,3920
262,91.751,91.78,91.74,91.77,3710
263,91.76,91.78,91.74,91.74,3600
264,91.86,91.86,91.7401,91.75,7857
265,91.9006,91.915,91.83,91.86,9103
266,91.875,91.94,91.8705,91.905,2966
267,91.94,91.94,91.88,91.88,3600
268,91.95,91.9599,91.91,91.93,4124
269,91.905,91.95,91.87,91.95,6380
270,91.94,91.96,91.9,91.9,11481
271,92,92.025,91.95,91.95,15339
272,92.0497,92.06,92.01,92.02,6187
273,92.04,92.09,92.03,92.07,32475
274,92.11,92.16,92.04,92.045,6862
275,92.03,92.13,92.03,92.13,4349
276,92.07,92.09,91.99,92.09,3492
277,92.03,92.085,92.03,92.06,7341
278,92.09,92.09,92.03,92.03,6439
279,92.12,92.19,92.0847,92.09,8595
280,92.17,92.22,92.12,92.12,3500
281,92.18,92.22,92.17,92.18,4670
282,92.11,92.22,92.11,92.21,3500
283,92.08,92.11,92.08,92.11,2200
284,92.15,92.18,92.06,92.08,3869
285,92.143,92.17,92.13,92.13,3300
286,92.12,92.14,92.1,92.14,6004
287,92.1,92.112,92.07,92.112,4802
288,92.13,92.14,92.1,92.11,5025
289,92.18,92.19,92.13,92.13,6569
290,92.1945,92.21,92.16,92.173,3800
291,92.225,92.24,92.185,92.205,3730
292,92.19,92.22,92.19,92.2,2000
293,92.17,92.215,92.17,92.19,3400
294,92.14,92.2,92.14,92.19,3827
295,92.1175,92.17,92.11,92.13,12873
296,92.12,92.13,92.07,92.12,3850
297,92.12,92.14,92.09,92.11,9748
298,92.05,92.15,92.05,92.15,4874
299,92.07,92.09,92.03,92.05,5038
300,92.13,92.13,92.07,92.08,6550
301,92.24,92.24,92.1201,92.1201,4338
302,92.32,92.33,92.24,92.24,4396
303,92.34,92.34,92.31,92.3229,2483
304,92.31,92.36,92.31,92.35,2900
305,92.27,92.31,92.25,92.31,3400
306,92.244,92.3,92.244,92.3,3900
307,92.23,92.25,92.2,92.23,3967
308,92.2,92.25,92.2,92.23,4201
309,92.24,92.255,92.16,92.19,56165
310,92.22,92.23,92.17,92.23,3171
311,92.2,92.26,92.2,92.23,2200
312,92.19,92.23,92.18,92.18,3654
313,92.17,92.21,92.15,92.17,6273
314,92.13,92.16,92.12,92.16,2800
315,92.12,92.16,92.1,92.11,4300
316,92.06,92.15,92.05,92.13,8605
317,92.08,92.09,92.04,92.09,6159
318,92.1175,92.12,92.03,92.06,5247
319,92.11,92.12,92.09,92.12,1400
320,92.175,92.18,92.1,92.1,4400
321,92.2,92.23,92.15,92.18,7345
322,92.2,92.26,92.19,92.19,10316
323,92.14,92.19,92.115,92.19,5900
324,92.12,92.19,92.12,92.15,3150
325,92.22,92.22,92.09,92.12,13548
326,92.205,92.21,92.18,92.19,2395
327,92.17,92.22,92.17,92.21,5400
328,92.13,92.2,92.11,92.19,8700
329,92.12,92.14,92.11,92.13,5533
330,92.15,92.15,92.083,92.113,16125
331,92.1136,92.14,92.09,92.14,8451
332,92.125,92.14,92.09,92.125,5335
333,92.215,92.22,92.11,92.11,6800
334,92.25,92.25,92.215,92.215,7560
335,92.23,92.27,92.23,92.235,5700
336,92.255,92.27,92.21,92.235,8062
337,92.24,92.26,92.22,92.255,3300
338,92.21,92.24,92.15,92.23,8283
339,92.233,92.285,92.22,92.22,6762
340,92.28,92.29,92.25,92.28,2600
341,92.34,92.34,92.29,92.29,3302
342,92.36,92.37,92.33,92.3486,5769
343,92.34,92.36,92.33,92.35,5832
344,92.22,92.335,92.21,92.33,6105
345,92.24,92.2744,92.23,92.23,10900
346,92.165,92.225,92.165,92.225,3660
347,92.17,92.19,92.14,92.16,6350
348,92.1645,92.18,92.15,92.17,2200
349,92.13,92.18,92.13,92.18,6941
350,92.069,92.17,92.04,92.14,14428
351,91.995,92.04,91.99,92.04,19925
352,91.965,92.0075,91.95,91.995,19357
353,91.92,91.98,91.9,91.9675,19700
354,91.95,91.95,91.91,91.92,13915
355,91.93,92.01,91.92,91.96,22786
356,91.91,91.94,91.9,91.93,16700
357,91.98,92.03,91.91,91.91,17212
358,91.915,92,91.88,91.98,16900
359,91.9,91.94,91.89,91.9,17712
360,91.94,91.96,91.86,91.89,19945
361,91.94,92.03,91.92,91.96,7741
362,91.97,91.985,91.89,91.94,9266
363,92.08,92.08,91.98,91.98,9443
364,91.97,92.09,91.95,92.09,11661
365,91.95,91.99,91.94,91.965,10083
366,92.01,92.02,91.93,91.94,12101
367,91.99,92.01,91.94,92,10189
368,91.94,92,91.94,91.99,12365
369,92,92.03,91.9,91.94,12584
370,91.98,92.02,91.95,92.01,12100
371,91.95,91.9899,91.94,91.98,20290
372,91.93,91.95,91.91,91.94,21488
373,91.865,91.92,91.83,91.92,15141
374,91.8,91.86,91.77,91.85,17750
375,91.92,91.92,91.8,91.8,17572
376,91.935,91.97,91.91,91.91,24383
377,91.895,91.9385,91.89,91.935,15141
378,91.96,91.965,91.89,91.9,14366
379,91.915,91.96,91.9,91.945,33582
380,91.86,91.92,91.82,91.92,23775
381,91.8403,91.87,91.83,91.855,34679
382,91.82,91.85,91.8,91.85,34067
383,91.78,91.825,91.775,91.82,16546
384,91.79,91.82,91.76,91.78,17960
385,91.79,91.82,91.77,91.78,25753
386,91.81,91.825,91.79,91.8,39284
387,91.83,91.83,91.8,91.82,32812
388,91.76,91.83,91.75,91.82,39868
389,91.73,91.78,91.725,91.77,56871
390,91.69,91.76,91.665,91.73,127955
