PPG,PPG Industries,Materials,8,Specialty Chemicals,28638485392,1171641
a1497360600,110.06,110.06,110.06,110.06,8766
1,110.06,110.07,109.848,109.848,2550
2,110.06,110.06,110.06,110.06,800
3,109.99,109.99,109.99,109.99,100
4,110,110.04,109.86,109.98,1151
5,110,110.05,110,110,5700
6,110.02,110.02,109.93,109.96,1000
7,109.93,109.98,109.93,109.98,400
8,110.06,110.06,109.91,109.91,3842
9,110.12,110.12,110.11,110.11,600
11,110.14,110.15,110.14,110.15,200
12,110.24,110.28,110.24,110.28,200
13,110.28,110.29,110.28,110.28,400
14,110.37,110.37,110.3,110.3,4700
15,110.34,110.4099,110.34,110.36,5100
17,110.3,110.355,110.29,110.355,900
18,110.2404,110.2404,110.2,110.2,1200
19,110.19,110.27,110.19,110.27,700
20,110.36,110.44,110.22,110.23,5306
22,110.33,110.4,110.32,110.38,2300
23,110.43,110.43,110.33,110.33,905
24,110.49,110.52,110.46,110.46,1900
25,110.52,110.55,110.48,110.48,1365
26,110.62,110.62,110.5201,110.55,3844
27,110.71,110.71,110.6308,110.66,3100
28,110.68,110.75,110.6,110.71,4100
29,110.71,110.72,110.64,110.65,3610
30,110.79,110.79,110.7,110.71,3503
31,110.73,110.82,110.73,110.7806,5017
32,110.8,110.8,110.76,110.76,920
33,110.84,110.85,110.8,110.8,1400
34,110.75,110.84,110.75,110.8001,4295
35,110.72,110.74,110.72,110.74,300
36,110.7861,110.8,110.71,110.72,4920
37,110.83,110.85,110.77,110.78,3593
38,110.86,110.87,110.83,110.84,2200
39,110.95,110.95,110.89,110.89,600
40,110.96,110.96,110.96,110.96,200
41,110.94,110.94,110.89,110.91,3100
42,111.07,111.07,110.979,110.979,7929
43,111.1,111.1,111.07,111.07,1500
44,111.11,111.11,111.06,111.1,4483
45,111.15,111.16,111.12,111.12,1200
46,111.18,111.18,111.17,111.17,534
47,111.22,111.25,111.18,111.21,6168
48,111.25,111.25,111.2,111.2,2300
49,111.23,111.3,111.21,111.28,1460
50,111.24,111.24,111.22,111.22,500
51,111.29,111.29,111.24,111.24,500
52,111.34,111.34,111.31,111.31,400
54,111.32,111.32,111.32,111.32,200
55,111.32,111.34,111.29,111.32,1760
56,111.36,111.36,111.29,111.31,1791
59,111.25,111.31,111.25,111.31,2591
60,111.29,111.29,111.25,111.25,2103
61,111.23,111.27,111.23,111.27,600
62,111.2,111.2301,111.2,111.2301,1097
63,111.21,111.215,111.21,111.215,200
64,111.115,111.215,111.09,111.2,3183
65,111.05,111.11,111.05,111.11,1500
66,111.06,111.06,111.04,111.04,1083
67,111.02,111.02,111.02,111.02,400
68,111.01,111.01,111.01,111.01,400
69,111,111.07,111,111,2564
70,111.03,111.03,110.97,111,3900
71,111.02,111.04,111.01,111.04,500
72,111.06,111.06,111.05,111.06,400
73,111.1,111.11,111.07,111.07,1000
75,111.0467,111.0467,111,111.04,1725
77,110.97,111.012,110.97,111.012,641
78,110.93,110.93,110.93,110.93,700
79,110.93,110.93,110.93,110.93,801
81,110.82,110.89,110.82,110.89,1300
82,110.78,110.78,110.78,110.78,200
83,110.77,110.79,110.72,110.78,10105
84,110.82,110.845,110.79,110.79,5300
85,110.8289,110.88,110.79,110.88,5100
86,110.9192,110.92,110.8189,110.82,4622
87,110.98,110.98,110.91,110.93,1200
88,111.01,111.01,110.93,110.97,4200
89,111.03,111.03,111.03,111.03,300
90,110.98,111.04,110.97,111.035,8329
91,110.985,111.02,110.97,111.01,2200
92,111.06,111.06,110.97,110.97,1100
93,111.1054,111.1054,111.1054,111.1054,135
94,111.05,111.07,111.04,111.04,1000
95,110.991,111.05,110.991,111.03,2100
96,111.04,111.04,111.03,111.03,337
97,111.04,111.04,111.04,111.04,200
98,111.13,111.13,111.05,111.05,2900
99,111.1,111.1,111.1,111.1,1000
100,111.1,111.15,111.09,111.1,3007
101,111.2,111.2,111.08,111.1,19820
102,111.23,111.23,111.2,111.2,1503
103,111.21,111.25,111.16,111.25,6500
104,111.21,111.21,111.17,111.17,1900
105,111.14,111.17,111.14,111.17,500
106,111.16,111.16,111.12,111.13,900
108,111.16,111.16,111.155,111.155,200
109,111.16,111.17,111.16,111.17,300
111,111.15,111.16,111.15,111.16,1400
112,111.17,111.17,111.14,111.16,2200
113,111.16,111.17,111.155,111.17,1383
114,111.17,111.17,111.17,111.17,100
115,111.16,111.175,111.16,111.16,3200
116,111.23,111.24,111.15,111.16,4233
117,111.29,111.29,111.25,111.25,1114
118,111.29,111.29,111.29,111.29,100
119,111.34,111.34,111.26,111.28,5585
120,111.3256,111.36,111.31,111.36,1125
121,111.33,111.36,111.33,111.33,1800
122,111.325,111.35,111.325,111.33,2100
123,111.29,111.325,111.29,111.325,1065
124,111.32,111.36,111.29,111.29,2900
125,111.36,111.37,111.35,111.35,738
126,111.3648,111.37,111.36,111.36,1275
127,111.38,111.43,111.38,111.39,900
128,111.39,111.43,111.39,111.4,1500
129,111.39,111.405,111.37,111.39,900
130,111.38,111.39,111.38,111.39,200
131,111.31,111.37,111.31,111.37,2842
132,111.36,111.36,111.33,111.33,1057
133,111.27,111.39,111.24,111.38,10633
134,111.19,111.27,111.19,111.27,900
135,111.225,111.225,111.225,111.225,700
136,111.19,111.19,111.19,111.19,100
137,111.07,111.2,111.07,111.2,3737
138,111.13,111.15,111.05,111.07,18097
139,111.23,111.23,111.1314,111.1314,2351
140,111.2,111.24,111.2,111.24,2100
142,111.13,111.14,111.13,111.14,600
144,111.15,111.15,111.1,111.15,20389
145,111.17,111.17,111.145,111.15,500
146,110.995,111.12,110.995,111.12,3200
148,111,111.03,111,111,2600
149,111.02,111.04,111,111,3600
150,111,111.05,111,111.05,1100
151,111.04,111.04,111,111,505
153,111.03,111.03,111,111.03,1776
154,111.04,111.06,111.02,111.02,824
155,111.06,111.0601,111.05,111.06,609
156,111.09,111.09,111.065,111.07,1400
157,111.07,111.095,111.07,111.08,849
158,111.085,111.09,111.06,111.09,1193
159,111.08,111.08,111.07,111.07,900
160,111,111.07,111,111.07,700
161,111.03,111.03,111.02,111.02,1116
162,111.03,111.06,111.03,111.04,1940
163,110.95,111,110.95,111,400
167,110.96,110.96,110.96,110.96,250
168,110.945,110.945,110.93,110.93,900
169,110.9101,110.93,110.9,110.91,700
170,110.96,110.96,110.92,110.93,1895
171,110.96,110.965,110.95,110.96,1800
172,111,111.01,110.97,110.97,3200
173,111.01,111.01,110.98,110.98,400
175,111.06,111.06,110.964,110.99,2440
176,111.11,111.11,111.07,111.07,611
177,111.09,111.11,111.09,111.1,1600
178,111.05,111.08,111.05,111.08,800
179,111.065,111.07,111.05,111.07,1100
180,111.07,111.1,111.07,111.07,1696
182,111.11,111.11,111.0603,111.07,2767
183,111.15,111.15,111.11,111.11,1008
184,111.18,111.18,111.11,111.13,3114
185,111.16,111.17,111.15,111.15,700
186,111.205,111.21,111.18,111.18,1408
187,111.26,111.26,111.21,111.21,2172
188,111.23,111.23,111.22,111.2268,2267
189,111.24,111.24,111.21,111.22,600
190,111.23,111.23,111.21,111.21,400
191,111.21,111.24,111.21,111.24,1800
192,111.19,111.21,111.19,111.21,500
193,111.195,111.195,111.18,111.18,800
195,111.22,111.22,111.2,111.2,1300
196,111.22,111.22,111.22,111.22,200
197,111.24,111.24,111.22,111.22,200
199,111.17,111.215,111.17,111.21,2525
200,111.19,111.19,111.16,111.16,750
201,111.25,111.25,111.2,111.2,2309
202,111.25,111.26,111.24,111.26,1824
203,111.26,111.26,111.26,111.26,100
204,111.23,111.24,111.23,111.24,300
207,111.29,111.29,111.22,111.24,2344
209,111.27,111.27,111.25,111.25,500
210,111.26,111.27,111.26,111.27,1100
211,111.22,111.25,111.22,111.25,3843
212,111.26,111.26,111.22,111.22,1771
213,111.275,111.275,111.245,111.26,700
214,111.25,111.25,111.25,111.25,300
215,111.23,111.23,111.22,111.221,500
216,111.24,111.25,111.24,111.24,500
217,111.22,111.2317,111.22,111.23,2300
218,111.22,111.24,111.22,111.23,1100
219,111.21,111.221,111.21,111.22,2889
220,111.245,111.245,111.22,111.22,1200
221,111.28,111.28,111.2357,111.26,1200
223,111.28,111.31,111.26,111.28,1283
225,111.27,111.2999,111.27,111.2999,560
226,111.2564,111.275,111.24,111.275,1700
227,111.235,111.25,111.235,111.24,800
228,111.21,111.21,111.21,111.21,200
229,111.215,111.215,111.215,111.215,200
230,111.24,111.24,111.19,111.19,1228
231,111.21,111.22,111.21,111.22,800
232,111.205,111.215,111.2,111.2,800
233,111.19,111.199,111.19,111.199,250
234,111.21,111.21,111.2,111.2,300
235,111.21,111.21,111.21,111.21,100
236,111.16,111.2,111.16,111.19,1200
237,111.18,111.18,111.16,111.18,900
238,111.17,111.17,111.17,111.17,100
239,111.22,111.22,111.18,111.18,1105
240,111.2,111.2281,111.19,111.2281,1222
241,111.14,111.2,111.14,111.2,900
242,111.09,111.09,111.09,111.09,100
243,111.09,111.09,111.06,111.09,700
244,111.11,111.13,111.09,111.09,1900
245,111.09,111.09,111.09,111.09,300
246,111.08,111.09,111.08,111.09,1200
247,111.14,111.14,111.1,111.1,1400
248,111.15,111.16,111.145,111.145,400
249,111.13,111.15,111.13,111.145,700
250,111.17,111.17,111.16,111.16,300
251,111.16,111.16,111.14,111.16,800
252,111.15,111.15,111.12,111.12,1300
253,111.15,111.155,111.15,111.15,300
255,111.15,111.15,111.13,111.13,400
256,111.1501,111.17,111.1501,111.16,497
257,111.14,111.17,111.14,111.17,900
259,111.17,111.17,111.14,111.14,800
260,111.15,111.165,111.15,111.165,200
261,111.18,111.18,111.16,111.16,3800
262,111.21,111.21,111.18,111.19,900
263,111.21,111.21,111.21,111.21,400
264,111.19,111.21,111.18,111.21,1700
265,111.17,111.2,111.17,111.18,1000
266,111.185,111.185,111.185,111.185,200
267,111.185,111.185,111.185,111.185,105
268,111.17,111.185,111.17,111.185,3495
269,111.19,111.19,111.15,111.15,700
270,111.21,111.22,111.21,111.21,400
271,111.26,111.26,111.24,111.24,708
272,111.24,111.24,111.24,111.24,100
273,111.25,111.25,111.25,111.25,100
274,111.25,111.25,111.25,111.25,100
275,111.21,111.26,111.21,111.235,4836
276,111.19,111.2,111.18,111.2,937
277,111.19,111.2,111.19,111.19,800
278,111.26,111.28,111.2,111.22,3675
279,111.29,111.29,111.27,111.27,10897
280,111.28,111.35,111.28,111.31,1700
281,111.28,111.28,111.28,111.28,200
282,111.265,111.265,111.2508,111.2508,435
283,111.23,111.26,111.23,111.26,700
284,111.2,111.21,111.16,111.1944,8202
285,111.1956,111.1956,111.1956,111.1956,300
286,111.19,111.2,111.18,111.195,1000
287,111.23,111.23,111.17,111.195,5988
288,111.24,111.24,111.21,111.21,2704
289,111.2315,111.2315,111.22,111.23,1278
290,111.2215,111.23,111.202,111.22,2521
291,111.23,111.24,111.22,111.23,801
292,111.2,111.22,111.2,111.22,600
293,111.24,111.24,111.19,111.1905,6600
294,111.24,111.24,111.24,111.24,500
295,111.24,111.26,111.24,111.24,2081
296,111.21,111.24,111.21,111.24,400
297,111.23,111.23,111.23,111.23,100
298,111.23,111.23,111.23,111.23,300
300,111.225,111.2301,111.21,111.21,835
301,111.23,111.23,111.23,111.23,100
302,111.2,111.23,111.2,111.23,5100
303,111.15,111.2,111.15,111.19,4746
304,111.15,111.15,111.1101,111.13,2438
305,111.16,111.18,111.14,111.18,1200
306,111.16,111.17,111.15,111.15,700
307,111.19,111.19,111.17,111.17,600
308,111.2,111.2,111.18,111.19,2000
309,111.23,111.23,111.19,111.19,3834
310,111.245,111.245,111.24,111.24,400
311,111.2,111.245,111.2,111.245,1300
312,111.205,111.215,111.2,111.215,3300
313,111.215,111.22,111.2,111.2,1000
314,111.23,111.24,111.22,111.22,1908
315,111.215,111.24,111.215,111.235,1400
316,111.24,111.24,111.2,111.2,2474
317,111.23,111.24,111.23,111.24,400
319,111.21,111.22,111.2,111.21,4400
320,111.214,111.23,111.214,111.23,1150
322,111.22,111.23,111.215,111.2256,715
323,111.2,111.22,111.2,111.22,2399
324,111.2001,111.21,111.2,111.2,2800
325,111.2,111.205,111.2,111.205,1600
326,111.21,111.21,111.2,111.2,3327
327,111.12,111.2,111.12,111.2,3668
328,111.11,111.11,111.11,111.11,100
330,111.12,111.13,111.1,111.12,1200
331,111.12,111.12,111.12,111.12,1500
332,111.13,111.13,111.12,111.125,2800
333,111.145,111.145,111.12,111.12,3231
335,111.16,111.165,111.14,111.15,2400
336,111.13,111.13,111.13,111.13,100
337,111.18,111.18,111.15,111.15,2200
338,111.14,111.18,111.14,111.18,1300
339,111.17,111.17,111.15,111.15,2995
340,111.16,111.16,111.16,111.16,100
341,111.18,111.18,111.17,111.175,3052
342,111.23,111.23,111.185,111.185,2203
343,111.25,111.25,111.23,111.23,1760
344,111.28,111.28,111.25,111.25,1100
345,111.285,111.285,111.27,111.27,300
346,111.3,111.3,111.29,111.29,4427
347,111.29,111.31,111.29,111.3,1700
348,111.28,111.29,111.28,111.29,1700
349,111.3,111.3,111.28,111.28,2900
350,111.32,111.32,111.3,111.3,1500
351,111.42,111.42,111.33,111.33,6034
352,111.42,111.47,111.41,111.46,5600
353,111.4,111.425,111.4,111.425,2740
354,111.45,111.45,111.42,111.42,2200
355,111.5,111.5,111.46,111.46,2455
356,111.52,111.53,111.47,111.49,2832
357,111.52,111.535,111.51,111.535,1700
358,111.56,111.57,111.49,111.51,5708
359,111.54,111.56,111.54,111.56,300
360,111.55,111.55,111.55,111.55,400
361,111.52,111.55,111.51,111.54,5450
362,111.55,111.55,111.48,111.515,8689
363,111.54,111.55,111.53,111.53,900
364,111.52,111.555,111.52,111.555,3892
365,111.51,111.52,111.505,111.52,4252
366,111.5,111.52,111.5,111.505,7152
367,111.51,111.52,111.5,111.5,5450
368,111.5,111.515,111.465,111.51,7619
369,111.51,111.51,111.5,111.51,1100
370,111.51,111.51,111.5,111.5,1100
371,111.49,111.51,111.48,111.51,7840
372,111.44,111.49,111.44,111.48,4000
373,111.41,111.44,111.41,111.44,1501
374,111.45,111.45,111.4,111.4,13028
375,111.45,111.46,111.45,111.45,4533
376,111.46,111.46,111.45,111.45,2892
377,111.44,111.46,111.43,111.46,2900
378,111.42,111.44,111.41,111.44,4455
379,111.45,111.45,111.415,111.42,4458
380,111.49,111.53,111.46,111.46,5416
381,111.5,111.51,111.45,111.49,11623
382,111.435,111.49,111.435,111.49,3190
383,111.41,111.44,111.41,111.435,5262
384,111.47,111.47,111.41,111.41,8986
385,111.45,111.46,111.44,111.46,2982
386,111.44,111.45,111.44,111.44,9485
387,111.44,111.46,111.43,111.45,5098
388,111.575,111.58,111.43,111.435,34841
389,111.51,111.58,111.5,111.58,12911
390,111.58,111.58,111.5,111.5,23995
