EOG,EOG Resources,Energy,3,Oil & Gas Exploration & Production,54985997823,3193538
a1493127000,94.15,94.28,93.8,93.8,23314
1,93.94,94.16,93.9,94.14,2089
2,93.4724,93.84,93.4724,93.8,4277
3,93.76,93.81,93.52,93.535,4350
4,93.63,93.68,93.52,93.67,3764
5,93.91,94,93.63,93.63,3628
6,93.88,93.95,93.83,93.9175,2094
7,93.93,94.13,93.84,93.84,2500
8,94.03,94.24,93.984,94.01,14521
9,94.07,94.19,94.03,94.13,2200
10,94.12,94.16,94.07,94.16,400
11,94.02,94.09,94.01,94.045,1905
12,93.98,94.015,93.913,93.99,2115
13,93.9701,94.05,93.95,94.05,999
14,94.11,94.12,94.02,94.02,2352
15,94.065,94.11,94,94.06,1200
16,94.05,94.08,94.04,94.04,400
17,94.18,94.26,94.06,94.06,5400
18,94.21,94.28,94.16,94.16,12261
19,94.2806,94.3,94.19,94.2,1494
20,94.09,94.34,94.09,94.34,2459
21,94.11,94.15,94.1,94.11,2400
22,94.18,94.18,94.09,94.1646,2500
23,94.29,94.29,94.07,94.14,5450
24,94.23,94.23,94.23,94.23,200
25,94.21,94.23,94.21,94.23,400
26,94.3,94.3,94.24,94.24,650
27,94.28,94.3999,94.23,94.31,2100
28,94.45,94.45,94.32,94.32,7998
29,94.42,94.45,94.34,94.45,1800
30,94.4038,94.5,94.35,94.39,5108
31,94.35,94.45,94.34,94.44,2402
32,94.37,94.4,94.28,94.4,2500
33,94.42,94.42,94.34,94.37,1832
34,94.37,94.39,94.36,94.39,500
35,94.35,94.43,94.281,94.38,7955
36,94.43,94.5,94.3,94.3,2450
37,94.47,94.48,94.4,94.48,1139
38,94.51,94.62,94.5,94.5,2256
39,94.65,94.67,94.55,94.55,2754
40,94.78,94.83,94.69,94.69,2584
41,94.66,94.76,94.66,94.76,3671
42,94.48,94.62,94.48,94.62,2512
43,94.6,94.6,94.44,94.44,1100
44,94.53,94.57,94.53,94.57,500
45,94.59,94.59,94.47,94.47,1200
46,94.77,94.77,94.59,94.59,1700
47,94.82,94.87,94.68,94.7,3207
48,94.67,94.81,94.67,94.785,2000
49,94.78,94.8,94.68,94.7007,6513
50,94.85,94.87,94.74,94.78,7636
51,94.89,94.93,94.85,94.87,4918
52,94.97,94.97,94.87,94.89,7800
53,94.95,94.97,94.92,94.959,5899
54,94.83,94.95,94.83,94.95,6396
55,94.93,94.93,94.84,94.84,5101
56,94.96,94.965,94.9,94.94,8456
57,94.96,94.98,94.91,94.925,9068
58,94.96,95.02,94.95,94.97,12513
59,94.97,94.98,94.95,94.96,8460
60,94.985,95.03,94.88,94.98,15836
61,95,95.02,94.96,94.97,8508
62,94.96,95.056,94.96,95,2600
63,94.82,94.94,94.82,94.94,2700
64,94.87,94.9,94.85,94.85,1100
65,94.82,94.85,94.78,94.85,2785
66,94.78,94.85,94.78,94.85,2998
67,94.79,94.86,94.79,94.79,3201
68,94.82,94.88,94.82,94.82,2300
69,94.8,94.84,94.8,94.82,1400
70,94.86,94.86,94.78,94.78,3050
71,94.87,94.91,94.8,94.84,5846
72,94.83,94.9,94.83,94.86,7128
73,94.81,94.81,94.75,94.81,2105
74,94.77,94.82,94.77,94.78,800
75,94.85,94.86,94.77,94.77,2382
76,94.85,94.89,94.81,94.85,4100
77,94.8061,94.84,94.8,94.84,936
78,94.81,94.815,94.79,94.815,1050
79,94.81,94.86,94.7756,94.79,4797
80,94.8229,94.84,94.79,94.79,3780
81,94.785,94.81,94.74,94.81,3520
82,94.75,94.78,94.72,94.765,3900
83,94.77,94.79,94.73,94.73,1300
84,94.765,94.78,94.73,94.75,3626
85,94.73,94.79,94.73,94.74,10050
86,94.67,94.75,94.67,94.74,2900
87,94.73,94.74,94.68,94.69,3945
88,94.71,94.73,94.67,94.73,1891
89,94.64,94.722,94.64,94.722,1000
90,94.64,94.67,94.64,94.67,2500
91,94.59,94.62,94.58,94.61,2690
92,94.535,94.59,94.535,94.59,1000
93,94.56,94.59,94.55,94.56,2076
94,94.56,94.56,94.56,94.56,200
95,94.5431,94.56,94.47,94.56,3140
96,94.48,94.53,94.48,94.53,2720
97,94.47,94.51,94.47,94.48,2700
98,94.51,94.52,94.47,94.48,4500
99,94.5331,94.55,94.51,94.535,575
100,94.52,94.58,94.47,94.53,4733
101,94.48,94.54,94.47,94.5,4801
102,94.5726,94.59,94.4879,94.4879,2370
103,94.58,94.59,94.53,94.55,2700
104,94.545,94.62,94.53,94.59,3054
105,94.55,94.5873,94.51,94.51,1100
106,94.55,94.57,94.51,94.55,1900
107,94.6,94.64,94.56,94.56,3121
108,94.51,94.6,94.51,94.6,1200
109,94.51,94.54,94.49,94.54,3735
110,94.56,94.58,94.53,94.56,1900
111,94.55,94.61,94.55,94.56,1923
112,94.55,94.59,94.55,94.58,700
113,94.58,94.58,94.58,94.58,300
114,94.54,94.59,94.54,94.59,1500
115,94.47,94.54,94.47,94.54,1300
116,94.56,94.58,94.51,94.51,1700
117,94.52,94.52,94.52,94.52,100
118,94.49,94.52,94.44,94.52,3483
119,94.49,94.51,94.47,94.5,4417
120,94.49,94.53,94.47,94.5,3326
121,94.4576,94.52,94.45,94.49,3881
122,94.45,94.48,94.43,94.44,7705
123,94.54,94.55,94.46,94.48,2208
124,94.62,94.62,94.55,94.55,1300
125,94.64,94.67,94.6,94.64,3460
126,94.56,94.63,94.56,94.63,900
127,94.57,94.57,94.5555,94.57,1080
128,94.675,94.69,94.61,94.61,2326
129,94.65,94.67,94.61,94.66,2930
130,94.71,94.71,94.69,94.69,200
131,94.6,94.71,94.6,94.71,1500
132,94.66,94.67,94.58,94.59,3000
133,94.73,94.73,94.66,94.66,2200
134,94.64,94.73,94.64,94.73,1568
135,94.68,94.74,94.63,94.63,2330
136,94.7,94.74,94.68,94.68,705
137,94.74,94.79,94.73,94.73,2195
138,94.75,94.8,94.75,94.755,1204
139,94.7,94.74,94.7,94.73,1900
140,94.71,94.72,94.7,94.72,1220
141,94.75,94.75,94.6803,94.75,10749
142,94.7,94.77,94.7,94.74,3045
143,94.711,94.73,94.68,94.68,1560
144,94.72,94.75,94.71,94.71,1100
145,94.73,94.76,94.71,94.71,1700
146,94.75,94.75,94.715,94.74,3267
147,94.68,94.76,94.68,94.75,837
148,94.66,94.68,94.66,94.68,600
149,94.63,94.66,94.63,94.66,300
150,94.72,94.72,94.64,94.64,1420
151,94.68,94.74,94.68,94.73,3663
152,94.72,94.72,94.68,94.69,1000
153,94.72,94.72,94.68,94.69,4538
154,94.67,94.7,94.67,94.69,400
155,94.72,94.72,94.65,94.65,5549
156,94.72,94.72,94.69,94.72,2715
157,94.72,94.76,94.71,94.72,9491
158,94.73,94.76,94.73,94.76,3800
159,94.705,94.72,94.68,94.72,1700
160,94.69,94.72,94.69,94.69,2000
161,94.66,94.7,94.66,94.7,700
162,94.72,94.72,94.66,94.66,1000
163,94.69,94.73,94.69,94.729,365
164,94.7,94.7,94.63,94.69,5050
165,94.7,94.7,94.67,94.7,790
166,94.6988,94.71,94.68,94.7,5223
167,94.66,94.69,94.65,94.69,2100
168,94.58,94.66,94.58,94.66,900
169,94.61,94.61,94.58,94.59,4541
170,94.59,94.63,94.5699,94.6,13444
171,94.55,94.59,94.54,94.58,3087
172,94.57,94.6,94.57,94.58,3348
173,94.51,94.56,94.51,94.56,1707
174,94.51,94.55,94.51,94.52,1986
175,94.48,94.5135,94.46,94.5,1553
176,94.46,94.49,94.46,94.48,2000
177,94.43,94.48,94.43,94.47,2360
178,94.434,94.45,94.42,94.45,1370
179,94.48,94.48,94.44,94.45,5388
180,94.46,94.5,94.46,94.49,1765
181,94.46,94.47,94.45,94.45,1200
182,94.46,94.47,94.46,94.46,700
183,94.4,94.45,94.4,94.45,815
184,94.4,94.4168,94.39,94.39,2242
185,94.35,94.4,94.35,94.4,3548
186,94.36,94.38,94.36,94.36,2040
187,94.34,94.4,94.31,94.33,4130
188,94.35,94.3648,94.35,94.3648,1000
189,94.41,94.41,94.3789,94.38,1200
190,94.39,94.41,94.38,94.41,900
191,94.38,94.38,94.36,94.38,2001
192,94.38,94.4,94.38,94.4,800
193,94.36,94.39,94.345,94.39,2400
194,94.38,94.4,94.35,94.35,600
195,94.33,94.38,94.31,94.38,1900
196,94.35,94.35,94.34,94.34,600
197,94.4,94.4,94.34,94.37,3000
198,94.38,94.42,94.37,94.42,2905
199,94.42,94.45,94.39,94.39,7423
200,94.44,94.46,94.4125,94.4125,2447
201,94.45,94.46,94.45,94.46,400
202,94.42,94.46,94.42,94.45,1825
203,94.475,94.48,94.47,94.47,500
204,94.45,94.47,94.44,94.47,1851
205,94.45,94.475,94.44,94.45,2080
206,94.47,94.47,94.43,94.46,700
207,94.46,94.49,94.42,94.49,1856
208,94.47,94.48,94.47,94.48,1500
209,94.43,94.47,94.42,94.47,2200
210,94.49,94.49,94.43,94.43,2250
211,94.44,94.46,94.43,94.46,1387
212,94.435,94.465,94.42,94.43,3095
213,94.5,94.5,94.43,94.45,4855
214,94.46,94.51,94.44,94.5,5075
215,94.44,94.5,94.44,94.46,3930
216,94.44,94.47,94.44,94.46,4043
217,94.46,94.48,94.44,94.465,8386
218,94.5,94.5,94.45,94.46,2921
219,94.49,94.545,94.49,94.54,5200
220,94.53,94.54,94.48,94.48,6100
221,94.51,94.54,94.51,94.54,5812
222,94.54,94.57,94.52,94.53,4106
223,94.56,94.56,94.5375,94.54,5067
224,94.63,94.67,94.56,94.56,6352
225,94.63,94.64,94.625,94.63,4176
226,94.68,94.69,94.62,94.63,5778
227,94.68,94.7,94.68,94.68,3975
228,94.635,94.69,94.61,94.68,5900
229,94.69,94.71,94.66,94.67,3354
230,94.72,94.72,94.68,94.69,3180
231,94.69,94.72,94.68,94.72,4700
232,94.695,94.71,94.66,94.7,6918
233,94.7,94.7,94.69,94.7,2205
234,94.7,94.71,94.67,94.7048,4550
235,94.69,94.72,94.68,94.705,4300
236,94.65,94.705,94.65,94.705,3070
237,94.63,94.64,94.62,94.63,1700
238,94.63,94.6405,94.6,94.61,900
239,94.62,94.63,94.61,94.63,3296
240,94.63,94.64,94.61,94.63,2603
241,94.67,94.67,94.64,94.64,894
242,94.61,94.66,94.61,94.65,4066
243,94.6112,94.64,94.6112,94.63,2400
244,94.66,94.66,94.65,94.65,700
245,94.6601,94.69,94.65,94.65,2905
246,94.645,94.68,94.64,94.67,2590
247,94.645,94.645,94.645,94.645,106
248,94.6113,94.63,94.6,94.63,1153
249,94.58,94.59,94.56,94.59,2000
250,94.58,94.58,94.58,94.58,200
251,94.56,94.61,94.56,94.58,800
252,94.57,94.62,94.56,94.59,4305
253,94.57,94.6,94.56,94.6,2003
254,94.64,94.64,94.56,94.56,2400
255,94.61,94.6275,94.61,94.62,1800
256,94.64,94.64,94.6,94.61,1588
257,94.63,94.65,94.63,94.64,2200
258,94.6396,94.6396,94.6,94.63,3099
259,94.62,94.65,94.61,94.6395,1564
260,94.58,94.62,94.58,94.62,4925
261,94.61,94.62,94.58,94.59,2330
262,94.67,94.67,94.63,94.63,15027
263,94.71,94.72,94.69,94.69,3041
264,94.7,94.7,94.68,94.7,1350
265,94.7602,94.77,94.72,94.72,4013
266,94.79,94.81,94.749,94.76,8403
267,94.78,94.84,94.78,94.79,3704
268,94.77,94.785,94.77,94.785,800
269,94.85,94.86,94.765,94.765,9300
270,94.87,94.89,94.86,94.86,3574
271,94.83,94.87,94.81,94.87,3325
272,94.89,94.92,94.83,94.83,1300
273,94.89,94.9078,94.86,94.9078,1150
274,94.91,94.91,94.85,94.88,2001
275,94.91,94.96,94.91,94.92,2300
276,94.87,94.91,94.85,94.91,3321
277,94.91,94.91,94.87,94.87,3100
278,94.91,94.91,94.88,94.9,2354
279,94.93,94.94,94.88,94.92,5066
280,94.97,94.97,94.94,94.94,1700
281,94.96,94.96,94.91,94.96,4354
282,95.01,95.01,94.95,94.9526,7089
283,95.08,95.093,95.02,95.03,8539
284,95.052,95.06,95,95.06,6382
285,95.01,95.06,95,95.05,2100
286,94.95,94.98,94.9401,94.98,2400
287,95,95.04,94.96,94.96,6192
288,94.9989,95.02,94.99,94.99,1950
289,95.06,95.06,95,95.01,4200
290,95,95.065,94.99,95.06,4520
291,94.98,95.02,94.98,95.02,1815
292,94.98,94.98,94.945,94.98,1703
293,94.941,94.98,94.94,94.98,1028
294,94.926,94.96,94.8901,94.94,4222
295,94.92,94.95,94.9,94.92,2400
296,94.92,94.94,94.92,94.92,2522
297,94.94,94.94,94.91,94.94,3600
298,94.98,94.98,94.91,94.93,5833
299,95.01,95.02,94.96,94.98,4700
300,95.01,95.03,95,95.02,3381
301,94.97,95.01,94.95,95.01,1310
302,94.95,94.98,94.93,94.97,4500
303,94.99,94.99,94.94,94.95,3800
304,94.99,95,94.99,94.99,1000
305,95.01,95.02,94.99,94.99,3710
306,94.98,95.01,94.97,95.01,6992
307,94.97,95,94.97,94.99,3800
308,94.95,94.98,94.95,94.97,1900
309,94.91,94.94,94.91,94.94,1361
310,94.91,94.93,94.91,94.93,1900
311,94.92,94.92,94.88,94.91,2586
312,94.89,94.92,94.89,94.905,1238
313,94.895,94.92,94.89,94.89,1687
314,94.92,94.92,94.89,94.91,2324
315,94.905,94.93,94.9,94.91,5600
316,94.91,94.92,94.88,94.905,3146
317,94.94,94.94,94.92,94.92,1200
318,94.845,94.94,94.845,94.94,4500
319,94.86,94.9,94.855,94.86,4100
320,94.85,94.8638,94.83,94.86,3068
321,94.86,94.89,94.84,94.85,3335
322,95,95.01,94.89,94.89,21106
323,95.07,95.08,94.97,94.99,23155
324,95.09,95.1,95.05,95.06,8497
325,95.08,95.13,95.08,95.11,7554
326,95,95.0801,95,95.0801,1924
327,95.02,95.04,94.98,95.015,14612
328,95.02,95.07,94.99,95.01,4374
329,95.05,95.07,95.01,95.01,18138
330,95.09,95.11,95.05,95.05,4830
331,95.1,95.1,95.07,95.09,3730
332,95.07,95.12,95.07,95.09,6153
333,95.06,95.1,95.06,95.09,3800
334,95.06,95.09,95.03,95.06,3336
335,95.13,95.13,95.06,95.06,6523
336,95.26,95.26,95.13,95.13,12830
337,95.25,95.29,95.22,95.26,3893
338,95.28,95.31,95.25,95.26,3750
339,95.31,95.31,95.25,95.25,800
340,95.38,95.38,95.27,95.27,6564
341,95.33,95.35,95.3,95.35,5478
342,95.32,95.34,95.31,95.33,5466
343,95.26,95.32,95.26,95.31,4280
344,95.31,95.32,95.25,95.2703,8258
345,95.32,95.32,95.2885,95.29,4282
346,95.28,95.32,95.28,95.32,5885
347,95.32,95.34,95.2984,95.3,5517
348,95.368,95.39,95.31,95.31,6367
349,95.3775,95.42,95.35,95.35,6305
350,95.38,95.41,95.37,95.39,6208
351,95.35,95.37,95.34,95.37,5701
352,95.37,95.37,95.33,95.34,5087
353,95.385,95.39,95.33,95.37,5876
354,95.38,95.41,95.37,95.38,13553
355,95.38,95.39,95.36,95.39,3330
356,95.355,95.39,95.35,95.375,6350
357,95.37,95.38,95.33,95.36,11985
358,95.28,95.37,95.28,95.37,6100
359,95.29,95.3,95.27,95.28,4741
360,95.19,95.3,95.19,95.3,6382
361,95.15,95.22,95.15,95.17,30347
362,95.15,95.21,95.13,95.15,8935
363,95.21,95.26,95.17,95.17,9074
364,95.24,95.25,95.21,95.21,7407
365,95.2,95.25,95.195,95.25,7000
366,95.195,95.2,95.135,95.2,9862
367,95.17,95.23,95.16,95.19,8811
368,95.255,95.26,95.155,95.16,16054
369,95.22,95.28,95.22,95.26,6717
370,95.21,95.23,95.17,95.225,9198
371,95.32,95.32,95.22,95.22,8110
372,95.3,95.34,95.29,95.32,8821
373,95.37,95.37,95.3,95.3,5046
374,95.3,95.365,95.3,95.365,11649
375,95.31,95.34,95.27,95.2801,10636
376,95.3,95.3,95.265,95.29,9429
377,95.365,95.39,95.27,95.3,16281
378,95.37,95.41,95.33,95.365,11723
379,95.32,95.38,95.3,95.38,9741
380,95.34,95.4,95.27,95.31,18606
381,95.325,95.37,95.32,95.37,10599
382,95.3,95.34,95.3,95.325,17097
383,95.33,95.36,95.28,95.31,16636
384,95.36,95.36,95.305,95.34,10422
385,95.38,95.41,95.36,95.36,18096
386,95.38,95.42,95.3589,95.38,15551
387,95.37,95.4,95.34,95.38,16030
388,95.38,95.41,95.365,95.37,11998
389,95.36,95.43,95.36,95.38,19664
390,95.28,95.38,95.25,95.36,48908
