PPG,PPG Industries,Materials,8,Specialty Chemicals,28998729777,1506843
a1493127000,108.18,108.18,108.18,108.18,100
1,108.64,109,108.25,108.47,1643
2,108.53,108.95,108.475,108.74,19422
3,108.64,108.85,108.215,108.53,14053
4,108.6,108.7,108.41,108.7,4186
5,108.63,108.63,108.43,108.53,12788
6,108.79,108.81,108.6701,108.7155,7630
7,108.92,108.97,108.75,108.8,3798
8,108.96,109.09,108.92,108.92,2796
9,108.73,109,108.715,108.96,3500
10,108.79,108.79,108.61,108.65,1100
11,108.77,108.89,108.77,108.79,1602
12,108.575,108.73,108.49,108.71,5552
13,108.52,108.61,108.49,108.58,2300
14,108.56,108.69,108.5,108.51,3531
15,108.62,108.62,108.43,108.55,3300
16,108.6,108.685,108.6,108.62,900
17,108.68,108.74,108.63,108.65,4800
18,108.79,108.85,108.67,108.67,4177
19,108.74,108.83,108.69,108.77,5142
20,108.782,108.8,108.72,108.78,4600
21,108.77,108.82,108.75,108.77,15320
22,108.69,108.78,108.69,108.74,3300
23,108.7,108.72,108.65,108.69,2550
24,108.57,108.67,108.57,108.67,1500
25,108.74,108.74,108.62,108.63,2901
26,108.75,108.76,108.69,108.74,3500
27,108.745,108.77,108.73,108.75,2900
28,108.92,108.92,108.73,108.745,3639
29,108.906,108.91,108.84,108.895,11509
30,108.94,109.015,108.91,108.91,11851
31,108.85,108.96,108.84,108.9,7700
32,108.93,108.97,108.87,108.87,4460
33,109,109.03,108.92,108.95,5500
34,109.01,109.03,109.01,109.01,1000
35,109.04,109.07,108.97,109.02,4697
36,109.07,109.12,109.04,109.08,4000
37,109.0739,109.085,109.02,109.075,5843
38,109.09,109.12,109.06,109.11,2400
39,109.18,109.21,109.09,109.12,3000
40,109.19,109.23,109.165,109.165,3592
41,109.19,109.215,109.16,109.2,2975
42,109.255,109.29,109.23,109.23,5980
43,109.3,109.32,109.24,109.255,1195
44,109.295,109.31,109.27,109.3,3100
45,109.21,109.31,109.21,109.31,5339
46,109.285,109.285,109.22,109.22,3982
47,109.29,109.31,109.28,109.285,2400
48,109.37,109.38,109.285,109.285,5360
49,109.375,109.44,109.34,109.37,5660
50,109.34,109.38,109.3301,109.375,3200
51,109.32,109.38,109.32,109.34,6444
52,109.41,109.43,109.32,109.33,7448
53,109.445,109.47,109.4,109.425,5511
54,109.32,109.445,109.32,109.445,3740
55,109.38,109.38,109.315,109.32,1900
56,109.345,109.41,109.34,109.38,2200
57,109.34,109.39,109.34,109.345,3100
58,109.42,109.42,109.32,109.34,5961
59,109.435,109.445,109.42,109.425,1200
60,109.46,109.465,109.42,109.45,4700
61,109.52,109.526,109.4666,109.4666,9223
62,109.52,109.53,109.5,109.51,2800
63,109.5,109.525,109.47,109.525,5623
64,109.5168,109.52,109.5,109.5,1133
65,109.49,109.52,109.49,109.51,6000
66,109.44,109.5,109.44,109.49,9183
67,109.45,109.49,109.45,109.45,2800
68,109.47,109.49,109.45,109.47,3500
69,109.49,109.51,109.45,109.48,8021
70,109.44,109.485,109.44,109.485,5798
71,109.4,109.47,109.37,109.45,5693
72,109.36,109.4,109.36,109.385,3192
73,109.38,109.385,109.34,109.37,5300
74,109.38,109.38,109.35,109.37,5400
75,109.29,109.38,109.24,109.38,5372
76,109.28,109.3,109.25,109.275,1143
77,109.2601,109.28,109.25,109.265,4045
78,109.21,109.2797,109.21,109.26,6336
79,109.1995,109.22,109.155,109.205,8359
80,109.15,109.22,109.15,109.205,31000
81,109.185,109.22,109.17,109.175,3968
82,109.23,109.24,109.19,109.2,2800
83,109.24,109.24,109.21,109.23,3553
84,109.25,109.26,109.22,109.23,4856
85,109.24,109.27,109.23,109.26,7402
86,109.25,109.25,109.24,109.24,1600
87,109.155,109.25,109.14,109.25,5000
88,109.19,109.19,109.12,109.1424,2835
89,109.25,109.25,109.19,109.2,2600
90,109.23,109.26,109.22,109.245,6542
91,109.245,109.245,109.22,109.22,1911
92,109.31,109.32,109.23,109.26,7153
93,109.32,109.34,109.29,109.32,9757
94,109.41,109.42,109.335,109.335,3321
95,109.44,109.45,109.42,109.43,1400
96,109.48,109.48,109.42,109.42,1500
97,109.44,109.52,109.44,109.49,4553
98,109.5,109.51,109.45,109.46,4191
99,109.47,109.53,109.45,109.51,4400
100,109.42,109.492,109.42,109.475,3900
101,109.41,109.47,109.4,109.44,4354
102,109.32,109.42,109.29,109.415,4600
103,109.37,109.37,109.31,109.325,2223
104,109.4,109.4,109.35,109.36,2200
105,109.39,109.42,109.37,109.41,2600
106,109.44,109.44,109.37,109.375,3101
107,109.46,109.46,109.41,109.425,1200
108,109.42,109.46,109.42,109.46,2200
109,109.43,109.45,109.42,109.44,3501
110,109.453,109.46,109.42,109.42,1702
111,109.45,109.48,109.43,109.48,3310
112,109.445,109.45,109.43,109.45,500
113,109.42,109.44,109.39,109.44,3631
114,109.41,109.4302,109.41,109.42,1060
115,109.38,109.43,109.37,109.43,3104
116,109.42,109.43,109.37,109.37,2000
117,109.44,109.45,109.43,109.43,2000
118,109.4,109.46,109.4,109.46,5796
119,109.41,109.42,109.38,109.38,11500
120,109.44,109.44,109.41,109.42,4100
121,109.47,109.47,109.41,109.44,2637
122,109.48,109.495,109.47,109.47,3800
123,109.44,109.49,109.44,109.48,2802
124,109.49,109.49,109.45,109.45,1479
125,109.48,109.495,109.46,109.49,4000
126,109.37,109.47,109.37,109.47,3500
127,109.36,109.42,109.36,109.38,3889
128,109.38,109.385,109.37,109.385,600
129,109.37,109.41,109.37,109.385,4750
130,109.39,109.4,109.38,109.385,3219
131,109.34,109.39,109.33,109.38,2678
132,109.31,109.33,109.31,109.31,1400
133,109.3289,109.3289,109.3289,109.3289,138
134,109.36,109.36,109.325,109.325,1820
135,109.3577,109.36,109.34,109.36,900
136,109.38,109.38,109.36,109.37,1100
137,109.4,109.4,109.36,109.37,1200
138,109.4,109.42,109.39,109.41,3100
139,109.41,109.41,109.38,109.395,2400
140,109.3999,109.41,109.36,109.41,2500
141,109.43,109.43,109.38,109.385,3500
142,109.4,109.43,109.35,109.42,5000
143,109.35,109.4,109.35,109.39,2200
144,109.3599,109.39,109.35,109.36,2400
145,109.4,109.4,109.36,109.36,2000
146,109.4,109.44,109.4,109.41,5300
147,109.43,109.43,109.38,109.4,3813
148,109.46,109.48,109.43,109.44,8098
149,109.47,109.48,109.47,109.48,200
150,109.56,109.59,109.48,109.48,3621
151,109.5,109.565,109.5,109.565,3500
152,109.51,109.52,109.5,109.5,2631
153,109.56,109.56,109.52,109.52,1100
154,109.575,109.575,109.57,109.57,400
155,109.61,109.61,109.58,109.58,1600
156,109.5999,109.6,109.595,109.595,854
157,109.61,109.61,109.56,109.59,4700
158,109.62,109.62,109.61,109.61,300
159,109.585,109.61,109.58,109.61,1500
160,109.57,109.585,109.56,109.585,1600
161,109.52,109.565,109.52,109.565,1620
162,109.5499,109.5499,109.52,109.52,1611
163,109.5499,109.5499,109.54,109.545,500
164,109.52,109.545,109.5001,109.545,2400
165,109.47,109.51,109.43,109.5,2200
166,109.4999,109.4999,109.47,109.475,800
167,109.5199,109.52,109.48,109.485,2100
168,109.4699,109.49,109.44,109.49,1500
169,109.5399,109.5399,109.44,109.44,2029
170,109.53,109.53,109.51,109.5271,2821
171,109.54,109.55,109.5291,109.53,2157
172,109.6,109.6,109.56,109.57,700
173,109.55,109.58,109.55,109.58,1900
174,109.53,109.56,109.53,109.56,1900
175,109.54,109.56,109.54,109.54,1300
176,109.543,109.55,109.54,109.55,1750
177,109.55,109.5602,109.53,109.5602,1200
178,109.57,109.599,109.55,109.55,4694
179,109.59,109.59,109.58,109.5899,500
180,109.5899,109.595,109.58,109.59,4314
181,109.58,109.59,109.57,109.59,1600
182,109.58,109.58,109.58,109.58,300
183,109.5699,109.5999,109.5699,109.585,3310
184,109.555,109.57,109.55,109.55,700
185,109.51,109.57,109.51,109.56,2975
186,109.46,109.5052,109.46,109.49,1200
187,109.52,109.52,109.45,109.45,3069
188,109.49,109.51,109.49,109.51,800
189,109.5,109.5193,109.49,109.5,2304
190,109.53,109.535,109.4999,109.4999,3750
191,109.53,109.53,109.51,109.53,1300
192,109.54,109.54,109.51,109.52,900
193,109.535,109.535,109.535,109.535,100
194,109.54,109.54,109.54,109.54,200
195,109.53,109.54,109.5,109.54,1800
196,109.52,109.525,109.51,109.51,400
197,109.53,109.53,109.53,109.53,625
198,109.565,109.5799,109.55,109.55,478
199,109.58,109.6,109.57,109.57,900
200,109.59,109.59,109.575,109.575,300
201,109.57,109.59,109.56,109.58,3000
202,109.57,109.57,109.57,109.57,200
203,109.605,109.61,109.58,109.58,1100
204,109.575,109.6,109.57,109.6,2400
205,109.63,109.63,109.57,109.57,3729
206,109.62,109.6399,109.59,109.615,2956
208,109.645,109.65,109.63,109.63,3167
209,109.645,109.645,109.645,109.645,200
210,109.62,109.6499,109.62,109.645,2400
211,109.65,109.65,109.62,109.63,2776
212,109.7,109.71,109.65,109.655,8833
213,109.72,109.73,109.7,109.7102,2404
214,109.735,109.74,109.72,109.73,1700
215,109.74,109.74,109.725,109.725,200
216,109.7499,109.76,109.725,109.725,1300
217,109.76,109.76,109.75,109.75,600
218,109.78,109.8,109.77,109.77,3000
219,109.68,109.8,109.68,109.8,11800
220,109.73,109.74,109.71,109.71,11643
221,109.87,109.87,109.73,109.73,9204
222,109.87,109.9,109.84,109.85,7447
223,109.86,109.87,109.86,109.87,654
224,109.99,109.99,109.87,109.87,9916
225,109.99,110,109.96,109.9799,13639
226,110.01,110.04,109.99,110,24039
227,110.01,110.01,109.99,110.01,2100
228,110.01,110.01,110.01,110.01,100
229,109.96,110.01,109.93,110,4799
230,109.945,109.95,109.935,109.95,3200
231,109.945,109.97,109.92,109.96,2000
233,109.9414,109.96,109.93,109.96,2152
234,109.92,109.945,109.92,109.93,1600
235,109.9,109.925,109.9,109.91,1400
236,109.9,109.9,109.87,109.8978,2542
237,109.8795,109.9,109.87,109.88,2215
238,109.9,109.9,109.88,109.88,400
239,109.85,109.88,109.84,109.87,1100
240,109.86,109.87,109.835,109.835,1200
241,109.85,109.87,109.85,109.86,400
242,109.83,109.86,109.83,109.86,2600
243,109.82,109.82,109.8,109.8,1523
244,109.86,109.87,109.83,109.83,3477
245,109.86,109.87,109.8554,109.8554,1850
246,109.84,109.87,109.84,109.86,1640
247,109.86,109.86,109.83,109.84,2900
248,109.85,109.87,109.84,109.87,1490
249,109.87,109.87,109.855,109.855,200
250,109.855,109.855,109.84,109.84,400
251,109.86,109.86,109.84,109.85,900
252,109.87,109.87,109.86,109.86,2818
253,109.85,109.87,109.85,109.86,1800
254,109.88,109.89,109.85,109.85,2668
255,109.88,109.88,109.88,109.88,100
256,109.89,109.89,109.86,109.87,1800
257,109.89,109.89,109.89,109.89,300
259,109.88,109.88,109.88,109.88,100
260,109.88,109.88,109.87,109.88,1391
261,109.91,109.91,109.88,109.88,1500
263,109.91,109.92,109.9,109.9126,2600
265,109.93,109.93,109.91,109.91,4606
266,109.9399,109.9399,109.92,109.935,919
267,109.96,109.96,109.93,109.935,2827
268,109.96,109.96,109.95,109.95,1000
269,109.9649,109.97,109.96,109.96,3575
270,109.975,109.975,109.965,109.965,600
271,109.95,109.975,109.94,109.975,3700
272,109.97,109.97,109.95,109.95,1300
273,109.955,109.97,109.95,109.97,1000
274,109.9699,109.975,109.95,109.95,2800
275,109.97,109.98,109.96,109.96,1500
276,110.01,110.02,109.96,109.97,6647
277,110.03,110.05,110.02,110.02,2400
278,110.04,110.045,110.02,110.0398,10200
279,110.06,110.085,110.05,110.05,2990
280,110.1,110.13,110.06,110.06,4455
281,110.12,110.12,110.09,110.09,877
282,110.12,110.12,110.1,110.11,2000
283,110.405,110.5,110.09,110.115,25934
284,110.314,110.41,110.26,110.41,10622
285,110.17,110.275,110.17,110.26,4890
286,110.14,110.2,110.12,110.18,6103
287,110.11,110.13,110.09,110.13,1200
288,110.115,110.14,110.08,110.101,49100
289,110.16,110.16,110.11,110.12,3953
290,110.34,110.34,110.17,110.18,8117
291,110.24,110.34,110.24,110.3,10015
292,110.27,110.32,110.245,110.25,2800
293,110.295,110.32,110.26,110.26,4000
294,110.39,110.39,110.27,110.29,8581
295,110.37,110.37,110.31,110.3427,5953
296,110.35,110.39,110.32,110.365,3659
297,110.415,110.42,110.35,110.35,8200
298,110.42,110.42,110.34,110.4,7039
299,110.43,110.43,110.39,110.405,3200
300,110.4,110.43,110.4,110.43,2661
301,110.4367,110.45,110.4,110.4,2132
302,110.5,110.54,110.43,110.435,12998
303,110.49,110.53,110.47,110.53,6000
304,110.48,110.5,110.48,110.48,2279
305,110.5,110.51,110.48,110.48,2720
306,110.45,110.5,110.45,110.5,6311
307,110.42,110.44,110.4,110.43,4295
308,110.4,110.42,110.3787,110.42,8954
309,110.42,110.42,110.34,110.37,5507
310,110.41,110.44,110.4,110.42,3501
311,110.42,110.44,110.39,110.405,6075
312,110.4,110.43,110.4,110.41,3700
313,110.41,110.42,110.4,110.41,1200
314,110.4,110.42,110.39,110.41,2800
315,110.42,110.42,110.38,110.39,3600
316,110.46,110.47,110.41,110.42,7486
317,110.44,110.46,110.43,110.43,990
318,110.425,110.4622,110.42,110.452,2878
319,110.47,110.48,110.4,110.42,4600
320,110.4699,110.48,110.46,110.46,3600
321,110.48,110.48,110.46,110.465,4322
322,110.48,110.5,110.48,110.48,3151
323,110.52,110.53,110.49,110.5,6250
324,110.55,110.57,110.52,110.53,4393
325,110.52,110.545,110.51,110.535,2423
326,110.44,110.52,110.43,110.52,5289
327,110.48,110.49,110.45,110.46,4752
328,110.51,110.51,110.49,110.49,1100
329,110.53,110.54,110.51,110.51,1000
330,110.53,110.54,110.5,110.54,6600
331,110.515,110.53,110.51,110.53,1200
332,110.57,110.58,110.5,110.52,8411
333,110.64,110.64,110.58,110.58,2900
334,110.66,110.7,110.62,110.64,4988
335,110.73,110.75,110.67,110.69,47560
336,110.78,110.86,110.72,110.73,11349
337,110.76,110.84,110.76,110.8,7249
338,110.77,110.77,110.75,110.76,1600
339,110.83,110.83,110.7205,110.75,9035
340,110.78,110.81,110.78,110.81,5166
341,110.83,110.83,110.775,110.775,1529
342,110.79,110.805,110.77,110.79,2073
343,110.82,110.82,110.79,110.79,2800
344,110.82,110.82,110.79,110.805,3016
345,110.81,110.82,110.78,110.79,2500
346,110.75,110.79,110.73,110.775,3800
347,110.78,110.78,110.7,110.7304,11346
348,110.795,110.81,110.77,110.78,2500
349,110.84,110.86,110.8,110.81,6911
350,110.87,110.89,110.83,110.83,1774
351,110.92,110.93,110.84,110.87,9509
352,110.9,110.92,110.87,110.92,9900
353,110.885,110.9,110.86,110.9,6291
354,110.86,110.91,110.85,110.9,7669
355,110.82,110.85,110.78,110.845,10408
356,110.805,110.82,110.79,110.805,3600
357,110.76,110.81,110.75,110.8,4760
358,110.8,110.8,110.73,110.755,14584
359,110.84,110.85,110.8,110.81,9431
360,110.84,110.8599,110.83,110.8599,2800
361,110.86,110.87,110.81,110.84,18898
362,110.905,110.92,110.85,110.86,13463
363,110.91,110.93,110.89,110.905,7855
364,110.93,110.93,110.91,110.915,10090
365,110.9241,110.93,110.915,110.92,4350
366,110.915,110.925,110.89,110.925,12531
367,110.91,110.92,110.9,110.91,9516
368,110.93,110.94,110.9,110.915,6998
369,110.915,110.935,110.915,110.93,5772
370,110.92,110.925,110.9,110.915,10760
371,110.97,110.97,110.9,110.915,9217
372,110.98,110.985,110.94,110.975,11900
373,110.915,111,110.91,110.99,14700
374,110.955,110.98,110.915,110.92,17951
375,110.93,110.955,110.91,110.955,15385
376,110.92,110.97,110.92,110.93,19795
377,111.03,111.035,110.95,110.96,16686
378,111.045,111.06,111.01,111.025,61380
379,110.965,111.045,110.95,111.04,16010
380,110.98,110.99,110.9,110.97,26719
381,110.97,110.99,110.95,110.97,9337
382,110.96,110.975,110.93,110.975,27302
383,110.91,110.955,110.89,110.95,11199
384,110.915,110.92,110.89,110.905,12870
385,110.87,110.92,110.86,110.92,11746
386,110.825,110.88,110.82,110.87,16253
387,110.85,110.86,110.82,110.83,12056
388,110.855,110.86,110.85,110.86,8730
389,110.87,110.87,110.84,110.86,20696
390,110.82,110.87,110.81,110.87,30018
