EOG,EOG Resources,Energy,3,Oil & Gas Exploration & Production,50944175529,3482778
a1499434200,88,88.07,88,88.07,25068
1,88.07,88.19,88,88.01,3580
2,88,88.11,87.98,88.06,1605
3,88.02,88.19,87.94,88.05,4500
4,87.93,88.025,87.93,88.025,700
5,88.01,88.07,87.8,87.96,15790
6,87.88,88.06,87.88,87.946,3100
7,87.86,87.96,87.83,87.9,4020
8,88.07,88.105,87.87,87.89,1700
9,88.05,88.19,88.01,88.115,14000
10,88.05,88.08,88,88.055,5162
11,88.03,88.1,87.92,88.1,6942
12,87.85,88.02,87.85,88.02,2729
13,87.91,88.01,87.87,87.88,8213
14,87.95,87.95,87.81,87.93,3760
15,87.83,87.95,87.83,87.95,2891
16,87.75,87.88,87.75,87.82,5930
17,87.91,87.91,87.76,87.77,1800
18,88.04,88.04,87.915,87.915,7477
19,88.03,88.04,87.97,88.04,5520
20,88.06,88.1,87.99,87.99,11054
21,88.1,88.1,87.99,88.075,9808
22,88.06,88.11,88.04,88.09,14316
23,88.03,88.08,88.03,88.08,5300
24,87.99,88.02,87.96,88.02,4250
25,87.88,87.98,87.88,87.98,5022
26,87.83,87.89,87.82,87.89,2006
27,87.83,87.865,87.81,87.845,1500
28,87.82,87.82,87.76,87.8,600
29,87.8,87.82,87.78,87.78,1106
30,87.75,87.8,87.75,87.8,1513
31,87.745,87.795,87.71,87.75,2130
32,87.81,87.83,87.72,87.72,2400
33,87.82,87.9,87.81,87.82,7577
34,87.86,87.92,87.83,87.85,3217
35,87.87,87.92,87.84,87.92,4137
36,87.97,87.97,87.85,87.87,4406
37,87.77,87.9,87.72,87.9,5059
38,87.775,87.83,87.77,87.77,8171
39,87.8,87.83,87.77,87.78,8440
40,87.86,87.86,87.78,87.82,28839
41,87.825,87.85,87.745,87.835,17148
42,87.8,87.86,87.76,87.86,2448
43,87.8,87.84,87.8,87.84,600
44,87.83,87.89,87.83,87.85,2213
45,87.79,87.85,87.77,87.845,1550
46,87.72,87.8,87.72,87.8,2090
47,87.65,87.7245,87.65,87.7216,3229
48,87.52,87.65,87.51,87.65,3724
49,87.545,87.56,87.45,87.5,9713
50,87.45,87.6,87.45,87.545,2961
51,87.57,87.6,87.445,87.445,5940
52,87.54,87.59,87.52,87.57,9604
53,87.425,87.525,87.4,87.525,6066
54,87.37,87.43,87.37,87.42,2114
55,87.44,87.45,87.36,87.37,2800
56,87.43,87.46,87.41,87.42,5186
57,87.4,87.42,87.36,87.42,5859
58,87.36,87.43,87.32,87.42,2503
59,87.33,87.35,87.33,87.33,800
60,87.21,87.3,87.21,87.27,2612
61,87.235,87.28,87.22,87.22,1700
62,87.31,87.3125,87.22,87.22,4532
63,87.29,87.3,87.235,87.29,5340
64,87.34,87.36,87.22,87.26,5123
65,87.3,87.38,87.3,87.37,6597
66,87.24,87.32,87.22,87.3011,6126
67,87.21,87.24,87.2,87.24,2072
68,87.13,87.21,87.13,87.21,4203
69,87.05,87.13,87.05,87.109,5298
70,87.04,87.11,87.04,87.0799,11895
71,87.24,87.25,87.04,87.06,8807
72,87.28,87.32,87.25,87.26,5054
73,87.275,87.37,87.25,87.29,2484
74,87.24,87.32,87.24,87.25,7133
75,87.22,87.3,87.19,87.26,7254
76,87.1577,87.21,87.13,87.21,8231
77,87.12,87.19,87.12,87.16,6030
78,87.35,87.35,87.13,87.14,4350
79,87.36,87.37,87.3,87.36,5700
80,87.39,87.43,87.31,87.36,16591
81,87.35,87.39,87.32,87.36,4180
82,87.34,87.4,87.33,87.375,5723
83,87.37,87.37,87.32,87.34,2821
84,87.37,87.41,87.37,87.39,3151
85,87.35,87.37,87.34,87.37,2735
86,87.37,87.42,87.36,87.37,3470
87,87.41,87.44,87.37,87.37,11981
88,87.34,87.381,87.34,87.38,1023
89,87.39,87.42,87.33,87.34,3104
90,87.34,87.39,87.34,87.39,1800
91,87.3373,87.38,87.32,87.37,6118
92,87.29,87.35,87.29,87.35,1865
93,87.3,87.35,87.3,87.31,2693
94,87.24,87.28,87.21,87.28,3263
95,87.33,87.36,87.23,87.23,3300
96,87.32,87.33,87.28,87.32,4365
97,87.34,87.39,87.32,87.32,4400
98,87.3175,87.3799,87.3,87.3799,5900
99,87.34,87.37,87.3,87.3,4443
100,87.26,87.33,87.25,87.32,2605
101,87.2594,87.26,87.21,87.25,3562
102,87.2608,87.3,87.25,87.26,10158
103,87.28,87.32,87.26,87.28,3771
104,87.25,87.32,87.25,87.27,3211
105,87.225,87.29,87.225,87.28,1993
106,87.28,87.29,87.245,87.26,2403
107,87.31,87.31,87.25,87.3,5901
108,87.27,87.32,87.255,87.31,5988
109,87.32,87.34,87.26,87.29,24693
110,87.33,87.335,87.29,87.3,7816
111,87.29,87.36,87.29,87.3,5500
112,87.25,87.32,87.25,87.29,3694
113,87.2636,87.28,87.25,87.28,2100
114,87.21,87.27,87.18,87.27,3000
115,87.265,87.28,87.23,87.24,5067
116,87.3,87.33,87.27,87.28,17053
117,87.32,87.34,87.28,87.28,4470
118,87.38,87.39,87.3,87.31,4557
119,87.4,87.42,87.37,87.4,5306
120,87.49,87.51,87.39,87.44,6510
121,87.62,87.63,87.5,87.5,16305
122,87.53,87.6,87.52,87.59,1100
123,87.52,87.57,87.52,87.54,2500
124,87.52,87.57,87.49,87.52,4168
125,87.49,87.51,87.48,87.51,2750
126,87.54,87.57,87.47,87.494,9392
127,87.54,87.55,87.5,87.53,4200
128,87.57,87.59,87.5189,87.5189,8840
129,87.55,87.58,87.53,87.54,4037
130,87.46,87.58,87.46,87.57,7234
131,87.45,87.51,87.45,87.475,800
132,87.48,87.48,87.43,87.43,1850
133,87.53,87.55,87.5,87.5,4583
134,87.46,87.54,87.46,87.54,1200
135,87.45,87.49,87.45,87.47,1004
136,87.35,87.39,87.35,87.39,700
137,87.32,87.38,87.32,87.33,2100
138,87.37,87.37,87.29,87.3,1852
139,87.375,87.4,87.37,87.39,911
140,87.34,87.35,87.31,87.35,2247
141,87.3585,87.39,87.34,87.34,1346
142,87.32,87.37,87.32,87.33,2300
143,87.28,87.358,87.28,87.358,2180
144,87.3,87.3119,87.26,87.28,2585
145,87.29,87.35,87.29,87.3024,11000
146,87.33,87.33,87.29,87.3097,1692
147,87.28,87.32,87.26,87.32,4742
148,87.2,87.3,87.2,87.27,3005
149,87.25,87.26,87.21,87.24,4241
150,87.27,87.29,87.25,87.27,3000
151,87.31,87.33,87.26,87.27,4600
152,87.36,87.37,87.3,87.3,2400
153,87.46,87.46,87.38,87.38,1597
154,87.43,87.44,87.39,87.44,2000
155,87.57,87.58,87.44,87.44,1900
156,87.6,87.62,87.53,87.58,5807
157,87.563,87.58,87.54,87.57,600
158,87.56,87.6,87.53,87.58,5461
159,87.49,87.53,87.49,87.53,1207
160,87.5,87.51,87.48,87.49,2750
161,87.58,87.59,87.495,87.5,2302
162,87.53,87.6,87.53,87.6,1900
163,87.52,87.59,87.52,87.54,1986
164,87.495,87.52,87.47,87.52,2500
165,87.57,87.58,87.5,87.52,2138
166,87.57,87.59,87.55,87.59,2400
167,87.57,87.59,87.54,87.55,2976
168,87.63,87.63,87.58,87.59,1900
169,87.65,87.69,87.61,87.61,4934
170,87.66,87.74,87.64,87.65,7340
171,87.65,87.7,87.65,87.69,1590
172,87.61,87.66,87.61,87.66,1134
173,87.6,87.615,87.58,87.6,700
174,87.57,87.6,87.57,87.59,3862
175,87.572,87.572,87.56,87.56,900
176,87.5,87.565,87.5,87.54,2400
177,87.485,87.5,87.46,87.5,800
178,87.47,87.5099,87.47,87.5099,915
179,87.54,87.54,87.44,87.44,3581
180,87.52,87.55,87.52,87.55,1512
181,87.52,87.59,87.52,87.54,4400
182,87.57,87.57,87.515,87.53,2531
183,87.501,87.55,87.501,87.55,1151
184,87.5,87.56,87.5,87.51,3147
185,87.525,87.53,87.48,87.48,2564
186,87.56,87.56,87.525,87.525,2313
187,87.5501,87.585,87.55,87.58,4617
188,87.54,87.58,87.54,87.55,2094
189,87.58,87.62,87.53,87.53,2854
190,87.51,87.57,87.51,87.57,1200
191,87.5258,87.54,87.5,87.5,1934
192,87.57,87.6,87.52,87.52,3000
193,87.54,87.58,87.54,87.58,400
194,87.47,87.53,87.47,87.53,500
195,87.46,87.48,87.44,87.47,2199
196,87.48,87.505,87.46,87.48,1701
197,87.52,87.54,87.47,87.5,4696
198,87.45,87.5,87.45,87.5,1150
199,87.51,87.54,87.446,87.446,2600
200,87.51,87.52,87.49,87.5,2328
201,87.52,87.55,87.51,87.54,2424
202,87.481,87.51,87.47,87.51,1037
203,87.55,87.56,87.5,87.51,4513
204,87.52,87.5441,87.52,87.54,1300
205,87.54,87.55,87.53,87.53,1200
206,87.53,87.56,87.5,87.56,1673
207,87.51,87.53,87.51,87.51,1085
209,87.54,87.55,87.47,87.49,3026
210,87.51,87.53,87.49,87.53,1428
211,87.43,87.51,87.43,87.51,1868
212,87.44,87.51,87.44,87.47,2000
213,87.35,87.47,87.35,87.47,2530
214,87.32,87.37,87.31,87.33,3951
215,87.3,87.33,87.26,87.31,3300
216,87.28,87.34,87.28,87.34,900
217,87.37,87.4,87.32,87.32,4140
218,87.38,87.38,87.36,87.37,700
219,87.3768,87.3768,87.37,87.37,336
220,87.36,87.36,87.35,87.36,500
221,87.36,87.37,87.34,87.36,3347
222,87.33,87.365,87.33,87.365,800
223,87.4,87.4,87.32,87.33,1990
224,87.38,87.38,87.36,87.38,1300
225,87.36,87.39,87.34,87.38,2130
226,87.4,87.4,87.38,87.38,1800
227,87.3045,87.37,87.3045,87.37,2677
228,87.34,87.35,87.34,87.34,533
229,87.39,87.4,87.3301,87.36,6226
230,87.39,87.39,87.39,87.39,200
231,87.36,87.36,87.32,87.36,2660
232,87.31,87.33,87.31,87.33,829
233,87.23,87.32,87.22,87.31,7470
234,87.23,87.28,87.23,87.28,2310
235,87.265,87.31,87.25,87.27,3209
236,87.26,87.29,87.26,87.29,1000
237,87.23,87.28,87.23,87.26,2697
238,87.24,87.25,87.22,87.25,2430
239,87.25,87.27,87.25,87.27,475
240,87.29,87.29,87.2476,87.25,1242
241,87.28,87.33,87.28,87.3,3810
242,87.27,87.27,87.27,87.27,700
243,87.32,87.32,87.31,87.31,800
244,87.28,87.3199,87.28,87.31,2300
245,87.31,87.33,87.27,87.3,4600
246,87.28,87.34,87.28,87.31,1800
247,87.32,87.32,87.32,87.32,500
248,87.36,87.39,87.32,87.32,3400
249,87.38,87.4035,87.36,87.36,1111
250,87.41,87.42,87.36,87.4,7541
251,87.475,87.48,87.4,87.41,4548
252,87.465,87.48,87.46,87.475,1970
253,87.445,87.49,87.43,87.48,4900
254,87.44,87.44,87.43,87.43,1500
255,87.48,87.48,87.43,87.45,2200
256,87.44,87.49,87.43,87.49,2000
257,87.45,87.456,87.425,87.442,11450
258,87.43,87.46,87.43,87.46,2662
259,87.45,87.46,87.44,87.45,1400
260,87.43,87.48,87.43,87.45,3295
261,87.43,87.48,87.43,87.45,2550
262,87.45,87.4534,87.43,87.445,2585
263,87.445,87.46,87.41,87.43,3219
264,87.44,87.48,87.42,87.46,3787
265,87.4795,87.4795,87.43,87.4599,1753
266,87.46,87.51,87.46,87.48,3017
267,87.48,87.48,87.46,87.46,1406
268,87.47,87.5,87.46,87.475,3615
269,87.48,87.48,87.45,87.4693,800
270,87.59,87.59,87.47,87.47,2382
271,87.54,87.61,87.54,87.6,3804
272,87.56,87.57,87.51,87.53,5202
273,87.6325,87.6325,87.56,87.56,1600
274,87.57,87.63,87.57,87.63,3244
275,87.55,87.6,87.55,87.58,3379
276,87.54,87.58,87.54,87.58,1300
278,87.55,87.56,87.54,87.555,1030
279,87.56,87.58,87.54,87.555,1500
280,87.5899,87.59,87.55,87.565,2709
281,87.61,87.62,87.59,87.61,1200
282,87.69,87.71,87.61,87.62,1900
283,87.79,87.82,87.7,87.71,5233
284,87.81,87.83,87.81,87.82,2400
285,87.83,87.88,87.83,87.83,3100
286,87.86,87.86,87.81,87.85,5205
287,87.82,87.88,87.81,87.86,3310
288,87.78,87.79,87.78,87.79,700
289,87.82,87.82,87.78,87.8,2113
290,87.76,87.815,87.76,87.81,2337
291,87.8,87.8,87.74,87.75,1000
292,87.76,87.8,87.76,87.8,2108
293,87.8,87.83,87.78,87.78,1550
294,87.81,87.83,87.79,87.8,1716
295,87.77,87.815,87.77,87.79,600
296,87.805,87.82,87.79,87.81,1500
297,87.77,87.83,87.77,87.81,2600
298,87.83,87.83,87.75,87.77,5099
299,87.7528,87.82,87.75,87.81,4509
300,87.77,87.79,87.76,87.77,2400
301,87.87,87.89,87.77,87.77,5400
302,87.84,87.88,87.83,87.865,1600
303,87.82,87.85,87.82,87.84,3728
304,87.79,87.835,87.78,87.825,5111
305,87.76,87.78,87.76,87.77,1600
306,87.755,87.76,87.74,87.76,3397
307,87.75,87.77,87.74,87.755,2100
308,87.73,87.76,87.73,87.755,1500
309,87.77,87.79,87.75,87.75,2206
310,87.78,87.82,87.78,87.78,5134
311,87.82,87.83,87.76,87.81,5845
312,87.85,87.86,87.8375,87.84,2700
313,87.94,87.94,87.85,87.86,6934
314,87.99,87.99,87.94,87.95,4000
315,87.98,88,87.95,87.975,10919
316,87.94,87.98,87.94,87.95,4015
317,87.95,87.95,87.91,87.94,2907
318,88.01,88.01,87.94,87.94,5885
319,87.99,88.01,87.98,88.01,3450
320,88.04,88.06,87.99,87.99,6569
321,88.03,88.07,88.03,88.07,3108
322,88.02,88.04,88.02,88.03,2360
323,88.07,88.07,88.03,88.03,2000
324,88.03,88.07,88.03,88.07,2575
325,88.03,88.035,88.02,88.02,2313
326,88.07,88.07,88.01,88.02,2700
327,88.08,88.1,88.06,88.08,5240
328,88.03,88.07,88.03,88.07,8284
329,88.08,88.1,88.05,88.05,4604
330,88.06,88.09,88.03,88.09,8700
331,88.07,88.07,88.01,88.03,4069
332,88.11,88.11,88.08,88.08,4400
333,88.065,88.11,88.06,88.1,5676
334,88.05,88.08,88.02,88.07,8270
335,88.05,88.06,88.04,88.045,3799
336,88.07,88.07,88.03,88.05,4803
337,88.09,88.1,88.06,88.06,3680
338,88.04,88.1,88.04,88.09,3933
339,88.02,88.04,88.02,88.04,800
340,88,88.039,88,88.039,4299
341,88.03,88.04,88,88.01,4398
342,88.05,88.11,88.05,88.05,9815
343,88.06,88.07,88.04,88.04,2530
344,88.07,88.09,88.06,88.07,3922
345,88.06,88.079,88.04,88.079,4825
346,88.06,88.08,88.04,88.055,2778
347,88.11,88.12,88.07,88.07,7555
348,88.13,88.13,88.1,88.11,12333
349,88.12,88.15,88.12,88.125,5700
350,88.19,88.2,88.13,88.13,4428
351,88.37,88.38,88.2,88.21,4956
352,88.3,88.37,88.3,88.37,10650
353,88.235,88.29,88.23,88.29,4878
354,88.23,88.25,88.22,88.23,1200
355,88.19,88.23,88.19,88.23,2900
356,88.175,88.2,88.16,88.19,3300
357,88.165,88.2,88.165,88.18,3023
358,88.18,88.21,88.16,88.17,5562
359,88.1,88.19,88.1,88.19,5350
360,88.11,88.13,88.07,88.09,5022
361,88.11,88.12,88.1,88.11,5044
362,88.11,88.13,88.09,88.12,4300
363,88.08,88.11,88.08,88.11,6024
364,88.14,88.15,88.06,88.09,6838
365,88.19,88.19,88.09,88.12,5860
366,88.29,88.29,88.19,88.19,2600
367,88.39,88.39,88.26,88.29,4635
368,88.46,88.46,88.37,88.38,7750
369,88.49,88.5,88.47,88.48,3123
370,88.57,88.57,88.44,88.48,10049
371,88.48,88.6,88.48,88.59,11914
372,88.395,88.48,88.39,88.475,6434
373,88.41,88.43,88.39,88.39,12571
374,88.4344,88.44,88.4001,88.42,6719
375,88.56,88.58,88.44,88.44,10407
376,88.54,88.58,88.54,88.56,8581
377,88.51,88.54,88.49,88.54,13547
378,88.47,88.52,88.47,88.51,10937
379,88.48,88.49,88.47,88.47,12784
380,88.46,88.49,88.46,88.48,17493
381,88.41,88.47,88.4,88.46,16564
382,88.39,88.41,88.38,88.41,20853
383,88.34,88.4,88.34,88.4,15081
384,88.38,88.39,88.34,88.34,15201
385,88.38,88.395,88.365,88.38,12538
386,88.38,88.39,88.36,88.375,15346
387,88.39,88.41,88.36,88.38,25312
388,88.35,88.4,88.32,88.38,29846
389,88.295,88.38,88.28,88.345,46110
390,88.41,88.44,88.21,88.29,158705
