EOG,EOG Resources,Energy,3,Oil & Gas Exploration & Production,51821028573,3207682
a1496410200,90,90.04,90,90.04,21586
1,89.98,90.07,89.83,90,8414
2,89.92,89.97,89.86,89.9,3200
3,89.96,90.055,89.94,89.99,5776
4,89.97,90.2,89.96,89.96,9249
5,90.0901,90.11,89.99,89.99,1425
6,89.93,90.15,89.93,90.09,9004
7,89.92,90.08,89.92,89.92,4821
8,89.9444,90.04,89.9444,89.97,5800
9,90.05,90.08,89.92,89.92,4550
10,90.06,90.22,90.06,90.08,10394
11,90.07,90.08,89.99,90.06,4800
12,90.165,90.2,90.105,90.11,4745
13,90.1718,90.21,90.15,90.21,2050
14,90.33,90.3488,90.17,90.21,4100
15,90.45,90.45,90.32,90.32,3827
16,90.47,90.5,90.39,90.45,6908
17,90.48,90.5499,90.46,90.5,3732
18,90.45,90.48,90.45,90.47,2332
19,90.36,90.465,90.36,90.441,3749
20,90.44,90.48,90.3,90.3,2511
21,90.4,90.4,90.31,90.36,3033
22,90.46,90.51,90.42,90.42,2885
23,90.53,90.58,90.43,90.43,3601
24,90.46,90.57,90.46,90.57,1973
25,90.49,90.55,90.45,90.52,2745
26,90.43,90.49,90.37,90.485,3460
27,90.36,90.44,90.35,90.41,3285
28,90.22,90.35,90.22,90.35,7400
29,90.325,90.35,90.19,90.19,6727
30,90.29,90.37,90.29,90.325,3700
31,90.25,90.31,90.12,90.28,8000
32,90.14,90.29,90.14,90.25,6577
33,90.08,90.17,90.08,90.14,3800
34,90.02,90.08,90.02,90.07,5776
35,90.02,90.03,89.98,90.02,2300
36,89.91,90.022,89.91,90.022,3455
37,89.77,89.85,89.76,89.82,5401
38,89.79,89.82,89.76,89.81,3111
39,89.819,89.89,89.78,89.8,9085
40,89.82,89.84,89.8,89.8,2000
41,89.74,89.83,89.74,89.83,5707
42,89.71,89.77,89.68,89.75,4150
43,89.76,89.77,89.71,89.71,8478
44,89.77,89.78,89.72,89.735,3500
45,89.79,89.83,89.76,89.76,3580
46,89.72,89.83,89.72,89.83,2681
47,89.8,89.8,89.71,89.72,4302
48,89.83,89.83,89.82,89.82,600
49,89.72,89.8,89.711,89.8,2341
50,89.8,89.8,89.73,89.73,3907
51,89.87,89.89,89.7907,89.8,5324
52,89.92,89.92,89.82,89.87,4570
53,89.92,89.92,89.87,89.9,904
54,89.88,89.95,89.88,89.93,1730
56,89.88,89.92,89.87,89.91,4416
57,89.68,89.83,89.68,89.83,4918
58,89.71,89.73,89.67,89.69,3400
59,89.77,89.77,89.73,89.73,2500
60,89.82,89.82,89.74,89.76,3477
61,89.8925,89.8925,89.8,89.83,1825
62,89.91,89.95,89.91,89.91,1500
63,89.85,89.91,89.76,89.91,5262
64,89.81,89.87,89.81,89.86,2501
65,89.73,89.8,89.73,89.8,2600
66,89.65,89.7199,89.62,89.7199,4813
67,89.65,89.66,89.61,89.65,2000
68,89.7,89.7,89.6401,89.6401,2425
69,89.7,89.73,89.67,89.69,3100
70,89.75,89.77,89.7,89.7,4500
71,89.73,89.73,89.7,89.72,1043
72,89.8,89.8,89.735,89.735,8100
73,89.6,89.8,89.6,89.8,7601
74,89.61,89.66,89.58,89.62,4384
75,89.65,89.71,89.63,89.64,5003
76,89.62,89.68,89.6,89.68,2400
77,89.64,89.65,89.58,89.61,3100
78,89.53,89.61,89.53,89.61,3621
79,89.53,89.54,89.5,89.515,2600
80,89.47,89.61,89.47,89.54,5167
81,89.4,89.49,89.4,89.49,2700
82,89.3854,89.42,89.3854,89.42,640
83,89.33,89.4,89.33,89.4,2050
84,89.3853,89.44,89.32,89.33,5607
85,89.37,89.4,89.34,89.4,3800
86,89.24,89.33,89.24,89.33,1262
87,89.26,89.28,89.24,89.25,4600
88,89.33,89.33,89.26,89.27,5091
89,89.28,89.33,89.28,89.33,900
90,89.16,89.27,89.16,89.27,3150
91,89.13,89.18,89.11,89.16,8554
92,89.1471,89.15,89.1,89.14,4149
93,89.2,89.2,89.1162,89.13,5450
94,89.26,89.26,89.16,89.19,4858
95,89.23,89.2699,89.21,89.23,1650
96,89.1,89.24,89.1,89.24,4738
97,89.09,89.15,89.06,89.0699,4400
98,89.1,89.13,89.1,89.12,5373
99,89.075,89.1425,89.07,89.12,4520
100,89.04,89.06,89.01,89.05,2825
101,89.03,89.08,89.03,89.075,8862
102,88.97,89.05,88.9428,89.05,9894
103,89.14,89.14,88.96,88.97,11823
104,89.24,89.2586,89.09,89.15,8200
105,89.135,89.23,89.135,89.23,2200
106,89.19,89.2,89.15,89.15,2000
107,89.25,89.27,89.2,89.2,5500
108,89.25,89.3,89.1917,89.24,10275
109,89.35,89.35,89.3,89.3,1400
110,89.32,89.37,89.31,89.3439,2075
111,89.2975,89.37,89.29,89.33,4301
112,89.33,89.34,89.31,89.33,12850
113,89.3205,89.36,89.29,89.36,1150
114,89.35,89.39,89.32,89.35,27873
115,89.38,89.44,89.38,89.39,4728
116,89.52,89.53,89.43,89.43,25878
117,89.48,89.6,89.46,89.525,10170
118,89.51,89.53,89.46,89.5208,4797
119,89.46,89.5172,89.46,89.5172,2488
120,89.385,89.43,89.37,89.43,2945
121,89.37,89.44,89.37,89.39,8320
122,89.4,89.4,89.34,89.36,1100
123,89.4,89.46,89.39,89.415,4064
124,89.42,89.42,89.39,89.395,1400
125,89.38,89.46,89.38,89.42,5165
126,89.38,89.38,89.35,89.38,1400
127,89.395,89.395,89.36,89.38,1200
128,89.47,89.47,89.37,89.38,2145
129,89.34,89.48,89.34,89.4652,9369
130,89.44,89.44,89.34,89.35,4852
131,89.455,89.47,89.3886,89.47,7473
132,89.43,89.52,89.42,89.47,9545
133,89.43,89.48,89.39,89.46,3460
134,89.36,89.47,89.36,89.45,1900
135,89.34,89.38,89.34,89.37,3000
136,89.24,89.36,89.24,89.325,4360
137,89.31,89.32,89.23,89.26,8800
138,89.34,89.35,89.29,89.33,3300
139,89.36,89.37,89.3,89.37,2100
140,89.38,89.41,89.31,89.32,2775
141,89.3989,89.4,89.34,89.34,3222
142,89.33,89.37,89.33,89.37,3539
143,89.41,89.46,89.35,89.35,5813
144,89.44,89.45,89.38,89.45,3020
145,89.44,89.48,89.4,89.42,1770
146,89.38,89.43,89.37,89.43,2100
147,89.32,89.39,89.32,89.37,1450
148,89.43,89.47,89.32,89.32,3314
149,89.41,89.494,89.39,89.46,4500
150,89.45,89.51,89.385,89.405,2600
151,89.47,89.48,89.42,89.45,2658
152,89.45,89.47,89.42,89.44,1481
153,89.48,89.51,89.47,89.47,1101
154,89.52,89.556,89.45,89.47,2950
155,89.52,89.56,89.5,89.56,1935
156,89.515,89.55,89.5081,89.55,1300
157,89.51,89.51,89.48,89.48,450
158,89.585,89.59,89.52,89.52,1800
159,89.59,89.59,89.54,89.54,900
161,89.55,89.6083,89.53,89.6083,1001
162,89.64,89.64,89.54,89.54,2700
163,89.66,89.68,89.63,89.68,2600
164,89.62,89.645,89.62,89.63,595
165,89.6299,89.6299,89.58,89.62,2890
166,89.61,89.61,89.58,89.58,800
167,89.7699,89.78,89.62,89.62,56615
168,89.8,89.8,89.73,89.78,7997
169,89.8,89.85,89.78,89.82,5096
170,89.93,89.94,89.8,89.8,4427
171,90.01,90.03,89.93,89.96,15735
172,90,90.03,89.99,89.993,3200
173,90.01,90.03,89.97,89.99,12181
174,90.06,90.06,90.005,90.01,1700
175,90.115,90.14,90.07,90.07,7146
176,90.08,90.1,90.06,90.1,5120
177,90.07,90.11,90.03,90.11,2073
178,90.09,90.11,90.09,90.09,1181
179,90.19,90.19,90.04,90.07,9550
180,90.19,90.19,90.16,90.19,1300
181,90.13,90.19,90.08,90.175,11400
182,90.15,90.2,90.14,90.14,3993
183,90.16,90.17,90.13,90.14,1700
184,90.13,90.17,90.13,90.17,4800
185,90.0645,90.14,90.04,90.14,8220
186,90.01,90.09,90.01,90.09,1800
187,90.01,90.01,89.96,90,1900
188,90.04,90.07,90,90.01,7979
189,90.03,90.07,90.03,90.06,800
190,90.1,90.12,90.04,90.04,1800
191,90.09,90.11,90.08,90.08,700
192,90.1,90.15,90.1,90.12,3250
193,90.01,90.05,90.01,90.02,600
194,90.05,90.05,89.99,90.01,1306
195,90.05,90.05,89.99,90.05,7441
196,90.08,90.08,90.03,90.04,5517
197,90.11,90.13,90.05,90.061,6999
198,90.13,90.17,90.13,90.165,800
199,90.155,90.18,90.106,90.14,5245
200,90.1106,90.16,90.09,90.16,7100
201,90.1,90.1,90.07,90.08,870
202,90.15,90.15,90.09,90.1,6400
203,90.08,90.15,90.08,90.15,8698
204,90.05,90.1,90.03,90.08,5258
205,90.105,90.11,90.06,90.06,3700
206,90.11,90.11,90.07,90.09,3519
207,90.08,90.1199,90.08,90.1199,900
208,90.06,90.09,90.06,90.08,1941
209,90,90.07,89.98,90.07,2400
210,89.98,89.99,89.9789,89.99,3821
211,90.01,90.08,89.97,89.97,4150
212,89.94,89.96,89.86,89.96,4250
213,89.93,89.97,89.93,89.96,8300
214,89.93,89.97,89.91,89.91,2737
215,89.904,89.96,89.9,89.93,3416
216,89.96,90,89.9,89.9,8700
217,89.93,89.95,89.93,89.94,1800
218,89.94,89.95,89.89,89.94,8088
219,89.88,89.98,89.86,89.94,9429
220,89.915,89.915,89.83,89.88,2539
221,89.85,89.91,89.85,89.905,2576
222,89.88,89.88,89.81,89.84,6400
223,89.88,89.92,89.87,89.875,6688
224,89.86,89.88,89.86,89.87,4300
225,89.84,89.9,89.84,89.85,29900
226,89.95,89.95,89.86,89.86,3400
227,89.94,89.955,89.94,89.955,1900
228,89.94,89.97,89.92,89.93,3552
229,89.98,89.98,89.938,89.938,298
230,90.03,90.03,89.95,89.95,1801
231,89.97,90.06,89.97,90.04,1700
232,89.9,89.98,89.89,89.97,10480
233,89.91,89.91,89.86,89.89,1700
234,89.9,89.93,89.9,89.93,643
235,89.89,89.89,89.89,89.89,500
236,89.85,89.89,89.85,89.89,4235
237,89.82,89.89,89.82,89.86,2569
238,89.85,89.86,89.81,89.82,2100
239,89.82,89.84,89.82,89.84,743
240,89.84,89.84,89.81,89.81,2687
241,89.885,89.89,89.84,89.844,3000
242,89.8512,89.87,89.8512,89.87,5503
243,89.89,89.89,89.85,89.85,1200
244,89.92,89.92,89.9,89.9,1500
245,89.99,89.99,89.93,89.94,1500
246,90.03,90.03,89.99,90,601
247,90.0001,90.07,90,90.02,7548
248,89.99,90.01,89.98,89.98,900
249,89.97,89.99,89.96,89.99,2100
250,89.94,89.99,89.94,89.98,2200
251,90,90,89.94,89.96,1953
252,89.98,90.01,89.98,90,1100
253,89.95,90.04,89.95,90,3200
254,90,90,89.97,89.98,2435
255,89.9892,90,89.96,89.98,1000
256,90.04,90.04,89.97,89.97,3712
257,90.03,90.03,89.98,90.01,3200
258,89.9298,89.98,89.9298,89.98,6517
259,89.89,89.93,89.87,89.93,2000
260,89.89,89.91,89.87,89.87,2701
261,89.85,89.88,89.85,89.88,2907
262,89.93,89.93,89.88,89.88,2100
263,89.88,89.92,89.85,89.91,2800
264,89.87,89.89,89.85,89.87,2684
265,89.86,89.89,89.84,89.8752,2650
266,89.85,89.89,89.84,89.89,1500
267,89.86,89.89,89.85,89.86,1800
268,89.89,89.9103,89.88,89.9,2706
269,89.91,89.928,89.86,89.89,4787
270,89.93,89.95,89.92,89.92,2100
271,89.89,89.92,89.86,89.92,1200
272,89.89,89.9,89.85,89.85,3700
273,89.86,89.89,89.86,89.87,3343
274,89.9,89.9,89.86,89.86,1700
275,89.92,89.92,89.88,89.89,1700
276,89.84,89.89,89.84,89.88,2250
277,89.79,89.82,89.78,89.82,1800
278,89.73,89.8,89.73,89.8,3400
279,89.73,89.73,89.7,89.7,1300
280,89.73,89.79,89.72,89.76,5062
281,89.7,89.74,89.7,89.71,1000
282,89.74,89.76,89.68,89.68,2689
283,89.7,89.73,89.7,89.71,1954
284,89.72,89.73,89.7,89.7,700
285,89.722,89.76,89.71,89.7299,3400
286,89.71,89.71,89.69,89.71,1649
288,89.69,89.72,89.68,89.69,2600
289,89.68,89.7,89.68,89.7,776
290,89.7,89.75,89.69,89.69,9462
291,89.7,89.7,89.65,89.69,2039
292,89.7472,89.7472,89.74,89.74,1600
293,89.7203,89.74,89.71,89.73,3100
294,89.69,89.71,89.61,89.71,6300
295,89.71,89.74,89.68,89.6902,1836
296,89.69,89.78,89.69,89.72,9711
297,89.69,89.75,89.69,89.7,1300
298,89.76,89.76,89.69,89.7052,2253
299,89.685,89.77,89.67,89.77,3183
300,89.63,89.67,89.6,89.67,3003
301,89.68,89.71,89.63,89.65,5200
302,89.67,89.72,89.63,89.66,18613
303,89.65,89.67,89.63,89.67,5600
304,89.65,89.68,89.63,89.64,2575
305,89.65,89.66,89.65,89.653,1187
306,89.63,89.65,89.63,89.65,2100
307,89.64,89.64,89.615,89.62,4965
308,89.66,89.66,89.63,89.63,1600
309,89.68,89.68,89.65,89.66,2630
310,89.63,89.69,89.63,89.675,3200
311,89.68,89.69,89.65,89.65,2900
312,89.67,89.68,89.65,89.68,1957
313,89.72,89.72,89.64,89.64,2715
314,89.69,89.73,89.69,89.73,3494
315,89.74,89.74,89.68,89.6952,1900
316,89.765,89.78,89.73,89.76,4150
317,89.74,89.78,89.74,89.77,1954
318,89.74,89.76,89.74,89.74,1300
319,89.73,89.79,89.7,89.75,7700
320,89.77,89.83,89.74,89.79,11564
321,89.77,89.82,89.75,89.79,5657
322,89.79,89.81,89.75,89.78,1700
323,89.79,89.81,89.79,89.79,1600
324,89.75,89.79,89.75,89.79,1425
325,89.76,89.777,89.76,89.777,2570
326,89.76,89.77,89.76,89.76,3175
327,89.71,89.7773,89.71,89.75,2422
328,89.72,89.749,89.7,89.7,2915
329,89.74,89.76,89.72,89.73,1200
330,89.73,89.76,89.73,89.74,2800
331,89.74,89.77,89.72,89.77,5500
332,89.75,89.75,89.72,89.72,2550
333,89.77,89.77,89.76,89.76,1100
334,89.67,89.78,89.67,89.777,5164
335,89.675,89.7067,89.67,89.68,4032
336,89.65,89.68,89.65,89.68,1100
337,89.66,89.68,89.65,89.66,3831
338,89.64,89.66,89.64,89.66,797
339,89.61,89.64,89.61,89.64,4672
340,89.58,89.62,89.58,89.61,1609
341,89.58,89.59,89.58,89.58,2400
342,89.56,89.61,89.55,89.61,4348
343,89.58,89.59,89.54,89.56,3905
344,89.58,89.59,89.57,89.57,2269
345,89.64,89.64,89.59,89.59,3568
346,89.67,89.69,89.65,89.65,4688
347,89.59,89.66,89.5,89.66,52710
348,89.51,89.58,89.51,89.58,1700
349,89.52,89.54,89.52,89.52,2900
350,89.51,89.54,89.51,89.52,3950
351,89.6,89.6,89.52,89.52,7085
352,89.62,89.63,89.59,89.6,3449
353,89.59,89.64,89.59,89.64,6090
354,89.5914,89.6,89.56,89.6,7025
355,89.63,89.63,89.585,89.6,3800
356,89.62,89.63,89.6,89.63,3700
357,89.61,89.63,89.605,89.61,3844
358,89.62,89.62,89.6,89.61,5416
359,89.5998,89.62,89.58,89.62,2137
360,89.54,89.6,89.515,89.6,6850
361,89.55,89.55,89.51,89.51,4522
362,89.58,89.58,89.53,89.54,9001
363,89.6,89.61,89.59,89.6,5591
364,89.63,89.65,89.59,89.6,9072
365,89.61,89.635,89.61,89.62,5650
366,89.69,89.7,89.6,89.61,7825
367,89.71,89.72,89.67,89.68,3700
368,89.67,89.73,89.67,89.7,8875
369,89.68,89.7,89.66,89.68,5200
370,89.69,89.7,89.66,89.67,7350
371,89.6843,89.7,89.68,89.7,5225
372,89.72,89.75,89.69,89.69,9648
373,89.7,89.73,89.69,89.73,9326
374,89.66,89.71,89.66,89.7,8440
375,89.62,89.65,89.609,89.64,4948
376,89.63,89.6585,89.61,89.62,10987
377,89.65,89.66,89.62,89.63,7707
378,89.6,89.65,89.59,89.65,12726
379,89.59,89.61,89.58,89.61,4620
380,89.59,89.61,89.56,89.59,12983
381,89.58,89.59,89.56,89.59,12307
382,89.6,89.6147,89.59,89.59,12562
383,89.58,89.62,89.58,89.6,11866
384,89.59,89.6,89.57,89.58,12144
385,89.55,89.6,89.54,89.6,13486
386,89.59,89.59,89.48,89.54,20067
387,89.53,89.6,89.51,89.59,23975
388,89.58,89.6,89.53,89.53,28366
389,89.56,89.58,89.5,89.58,41368
390,89.65,89.67,89.49,89.55,132271
