PPG,PPG Industries,Materials,8,Specialty Chemicals,29033991667,1243264
a1496410200,109.14,109.14,109.14,109.14,7946
1,108.69,108.69,108.69,108.69,100
2,108.95,108.95,108.78,108.79,506
3,108.83,108.83,108.83,108.83,100
4,109.08,109.27,108.99,108.99,1360
5,109.34,109.35,109.07,109.1,2500
6,109.395,109.48,109.19,109.26,2320
7,109.4599,109.47,109.26,109.4,3300
8,109.66,109.66,109.39,109.395,8155
9,109.41,109.655,109.34,109.64,5300
10,109.445,109.56,109.445,109.52,700
11,109.435,109.435,109.4227,109.4227,200
12,109.34,109.435,109.34,109.435,800
13,109.1,109.39,109.1,109.32,2900
14,109.31,109.31,109.08,109.08,3200
15,109.37,109.38,109.22,109.28,2700
16,109.38,109.43,109.32,109.385,4200
17,109.47,109.52,109.43,109.43,4000
18,109.59,109.59,109.5,109.5,1832
19,109.61,109.63,109.59,109.59,1107
20,109.575,109.61,109.575,109.61,1300
21,109.54,109.57,109.54,109.57,200
22,109.58,109.58,109.495,109.495,1100
23,109.63,109.63,109.49,109.51,2200
24,109.63,109.63,109.63,109.63,200
25,109.535,109.6,109.535,109.58,2409
26,109.36,109.47,109.35,109.47,1595
27,109.385,109.385,109.36,109.36,400
28,109.295,109.38,109.24,109.34,2201
29,109.19,109.29,109.17,109.25,4685
30,109.2,109.2999,109.2,109.2999,553
31,109.33,109.33,109.265,109.29,3070
32,109.1,109.3,109.1,109.275,3817
33,109.08,109.08,109.08,109.08,385
34,109.03,109.1,109,109.1,800
35,108.99,108.99,108.99,108.99,200
36,108.96,108.99,108.93,108.98,1243
37,108.985,109.01,108.975,108.98,4408
38,108.93,109.01,108.93,109.01,2355
39,109.03,109.09,108.94,108.94,4664
40,109.04,109.09,109.04,109.055,600
42,109.14,109.14,109.05,109.05,5158
43,109.14,109.17,109.1,109.17,3300
44,109.105,109.105,109.1,109.1,600
45,109.08,109.08,109.07,109.07,300
46,109.16,109.16,109.09,109.1052,1300
47,109.09,109.13,109.09,109.13,200
48,109.03,109.09,109.03,109.09,2812
49,109,109,109,109,100
50,109.02,109.0599,108.99,108.99,900
51,109.07,109.13,109.03,109.04,4658
52,109.05,109.05,109.05,109.05,100
53,109.065,109.1,109.03,109.04,1623
54,109.08,109.12,109.08,109.09,1200
55,109.18,109.19,109.09,109.12,5853
57,109.18,109.21,109.15,109.21,1979
58,109.2,109.25,109.2,109.21,1098
59,109.26,109.27,109.26,109.26,3029
60,109.37,109.37,109.27,109.27,500
61,109.41,109.44,109.355,109.36,5856
62,109.46,109.46,109.41,109.45,2100
63,109.39,109.46,109.3728,109.46,3122
64,109.47,109.47,109.39,109.39,1700
65,109.465,109.51,109.44,109.46,1400
66,109.5,109.5117,109.43,109.44,2461
68,109.52,109.52,109.46,109.48,800
69,109.48,109.48,109.48,109.48,200
70,109.5652,109.58,109.54,109.54,3740
71,109.61,109.61,109.56,109.6,622
73,109.59,109.61,109.51,109.55,3400
74,109.59,109.62,109.59,109.61,1321
75,109.57,109.58,109.545,109.57,1726
76,109.53,109.53,109.53,109.53,100
77,109.62,109.65,109.57,109.57,4087
78,109.62,109.65,109.6091,109.64,2410
79,109.62,109.62,109.62,109.62,200
80,109.68,109.68,109.62,109.62,2300
81,109.66,109.68,109.63,109.64,1300
82,109.59,109.71,109.59,109.68,4295
83,109.59,109.6,109.59,109.6,207
84,109.67,109.68,109.63,109.64,1800
86,109.6,109.69,109.6,109.69,2658
87,109.64,109.64,109.64,109.64,200
88,109.605,109.605,109.605,109.605,300
89,109.62,109.67,109.6,109.65,1476
90,109.62,109.64,109.605,109.64,2700
91,109.68,109.68,109.63,109.63,5198
92,109.66,109.71,109.65,109.68,5439
93,109.685,109.7,109.67,109.67,1600
94,109.675,109.72,109.66,109.69,2750
96,109.71,109.74,109.675,109.675,4492
97,109.71,109.74,109.71,109.71,6111
98,109.7,109.72,109.7,109.71,2207
99,109.67,109.6864,109.66,109.68,901
100,109.665,109.665,109.66,109.66,400
101,109.67,109.7,109.67,109.68,3500
102,109.7,109.7,109.68,109.68,1150
103,109.72,109.72,109.7002,109.71,595
104,109.7,109.705,109.6932,109.705,600
105,109.69,109.71,109.68,109.71,1300
106,109.74,109.74,109.685,109.7,5186
107,109.81,109.81,109.74,109.74,2100
108,109.79,109.79,109.79,109.79,500
109,109.84,109.84,109.8,109.8,463
110,109.85,109.85,109.85,109.85,100
111,109.87,109.91,109.844,109.8494,4022
112,109.87,109.87,109.87,109.87,100
113,109.87,109.87,109.87,109.87,100
114,109.88,109.8899,109.865,109.8899,600
115,109.88,109.89,109.85,109.88,4800
117,109.92,109.92,109.89,109.9,1100
118,109.87,109.91,109.87,109.9,1500
119,109.91,109.94,109.85,109.85,9432
120,109.91,109.91,109.87,109.91,2907
121,109.94,109.94,109.91,109.91,2751
122,109.89,109.92,109.89,109.91,1400
123,109.895,109.9,109.895,109.9,200
124,109.91,109.91,109.91,109.91,100
125,109.94,109.94,109.91,109.91,1305
126,109.9699,109.9699,109.93,109.94,1200
127,109.95,109.97,109.94,109.97,1541
128,109.975,109.98,109.97,109.97,2233
129,109.96,109.99,109.96,109.98,3697
130,109.92,109.9563,109.92,109.9563,1900
131,109.935,109.98,109.925,109.925,2289
132,109.92,109.93,109.92,109.93,200
133,109.98,109.98,109.9,109.92,1900
134,109.98,109.99,109.97,109.99,1200
135,109.98,109.99,109.97,109.99,1502
136,109.99,109.99,109.975,109.98,800
137,109.965,109.99,109.96,109.99,700
138,109.97,109.97,109.97,109.97,100
139,109.96,109.96,109.91,109.91,500
140,109.94,109.98,109.94,109.97,1426
141,109.94,109.94,109.94,109.94,100
143,109.87,109.87,109.87,109.87,100
144,109.9,109.91,109.87,109.87,1000
145,109.95,109.95,109.92,109.92,1005
146,109.89,109.93,109.89,109.93,1300
147,109.92,109.92,109.92,109.92,100
148,109.8886,109.91,109.8802,109.8802,646
150,109.9,109.9,109.9,109.9,100
151,109.84,109.89,109.84,109.87,2120
152,109.8,109.81,109.78,109.81,1600
153,109.79,109.8,109.7814,109.7814,500
154,109.735,109.79,109.735,109.78,800
155,109.79,109.79,109.79,109.79,100
156,109.7601,109.8,109.73,109.73,1028
157,109.79,109.79,109.79,109.79,200
159,109.73,109.78,109.73,109.775,2300
160,109.74,109.74,109.74,109.74,100
161,109.78,109.78,109.77,109.78,805
162,109.76,109.78,109.76,109.76,1000
163,109.797,109.8,109.775,109.78,1368
164,109.77,109.8,109.77,109.79,500
165,109.81,109.81,109.8,109.8,300
166,109.81,109.81,109.785,109.79,1300
167,109.81,109.81,109.74,109.74,200
168,109.8,109.8,109.7638,109.8,1644
169,109.81,109.81,109.79,109.79,300
170,109.81,109.81,109.79,109.79,200
171,109.78,109.81,109.78,109.81,300
172,109.76,109.79,109.76,109.77,2500
173,109.8,109.8,109.775,109.775,1447
175,109.8,109.8,109.78,109.78,740
176,109.775,109.8,109.775,109.7937,465
177,109.8,109.8,109.8,109.8,100
178,109.775,109.7825,109.775,109.7825,300
179,109.78,109.8,109.75,109.76,2100
180,109.82,109.82,109.81,109.81,950
181,109.84,109.84,109.79,109.79,1858
182,109.83,109.83,109.8,109.82,1702
183,109.8396,109.84,109.8396,109.8396,900
184,109.83,109.84,109.8,109.8,3000
185,109.83,109.83,109.83,109.83,100
186,109.82,109.82,109.81,109.81,500
187,109.79,109.8,109.76,109.79,3800
188,109.82,109.84,109.8,109.8,1300
189,109.93,109.95,109.79,109.79,11317
190,109.94,109.96,109.93,109.93,1000
191,109.97,109.97,109.94,109.94,2168
192,109.97,109.98,109.95,109.965,2267
193,110.06,110.06,109.96,109.97,5558
194,110.03,110.05,110.03,110.05,900
195,110.0371,110.1,110.03,110.05,4560
196,110.06,110.119,110.05,110.05,4823
197,110.035,110.035,110.01,110.02,2800
198,110.06,110.06,110.06,110.06,100
199,110.14,110.16,110.06,110.06,4395
200,110.13,110.15,110.12,110.14,3513
201,110.16,110.17,110.14,110.15,5114
202,110.15,110.1625,110.13,110.16,3000
203,110.14,110.15,110.14,110.15,3165
204,110.11,110.14,110.08,110.14,6395
205,110.14,110.14,110.11,110.11,300
206,110.1296,110.14,110.1,110.11,1306
207,110.1,110.12,110.08,110.11,5844
208,110.13,110.13,110.08,110.09,1600
209,110.115,110.17,110.115,110.12,4052
210,110.1299,110.2,110.098,110.12,3225
211,110.1089,110.13,110.1,110.1,614
212,110.06,110.1,110.04,110.1,805
213,110.07,110.07,110.05,110.05,900
214,110.1,110.1,110.09,110.09,400
216,110.08,110.13,110.08,110.13,1000
217,110.11,110.11,110.095,110.1,300
218,110.12,110.12,110.07,110.08,3000
219,110.14,110.14,110.13,110.13,400
220,110.125,110.125,110.11,110.11,600
221,110.14,110.14,110.14,110.14,533
222,110.19,110.19,110.11,110.11,3099
223,110.22,110.22,110.18,110.18,1043
224,110.21,110.26,110.205,110.205,3171
225,110.2,110.21,110.18,110.19,700
226,110.23,110.24,110.21,110.22,2600
227,110.2,110.221,110.2,110.221,300
228,110.24,110.24,110.24,110.24,198
229,110.21,110.23,110.21,110.215,400
230,110.25,110.25,110.2,110.215,3428
231,110.26,110.26,110.24,110.26,600
232,110.235,110.24,110.23,110.24,1900
233,110.26,110.26,110.235,110.235,1800
234,110.25,110.27,110.25,110.27,300
235,110.27,110.27,110.27,110.27,200
236,110.245,110.245,110.23,110.235,1000
237,110.265,110.265,110.2401,110.25,1900
238,110.3,110.3,110.24,110.26,3108
239,110.3,110.3,110.27,110.27,300
240,110.29,110.3,110.28,110.3,1200
241,110.28,110.31,110.28,110.285,1213
242,110.29,110.29,110.29,110.29,103
243,110.315,110.35,110.31,110.31,2905
244,110.36,110.36,110.32,110.33,980
246,110.41,110.41,110.39,110.39,500
247,110.42,110.42,110.41,110.41,582
248,110.44,110.44,110.41,110.42,2000
249,110.42,110.44,110.42,110.43,1400
250,110.44,110.44,110.41,110.41,300
251,110.48,110.48,110.33,110.39,5573
252,110.42,110.44,110.42,110.44,1300
253,110.55,110.55,110.45,110.45,2781
254,110.575,110.65,110.52,110.52,6400
255,110.575,110.6,110.56,110.565,4662
256,110.57,110.575,110.55,110.57,900
257,110.5,110.59,110.5,110.58,1985
258,110.51,110.6,110.51,110.515,2832
259,110.55,110.55,110.52,110.52,769
260,110.51,110.53,110.51,110.527,1100
261,110.53,110.53,110.49,110.49,1638
262,110.47,110.56,110.47,110.53,4700
263,110.495,110.53,110.48,110.48,1500
264,110.51,110.51,110.51,110.51,300
265,110.42,110.46,110.42,110.46,7600
266,110.44,110.46,110.405,110.43,2598
267,110.46,110.47,110.41,110.41,1400
268,110.47,110.47,110.445,110.445,200
269,110.435,110.46,110.435,110.46,500
270,110.42,110.45,110.42,110.45,500
271,110.415,110.44,110.365,110.41,1500
272,110.44,110.44,110.39,110.43,451
273,110.43,110.46,110.42,110.42,2196
274,110.41,110.42,110.4,110.41,694
275,110.42,110.42,110.35,110.35,1300
276,110.39,110.39,110.39,110.39,100
277,110.36,110.4,110.36,110.4,1300
278,110.35,110.35,110.35,110.35,400
279,110.3375,110.35,110.325,110.33,3400
280,110.35,110.35,110.35,110.35,100
281,110.3686,110.37,110.35,110.36,1132
282,110.37,110.38,110.35,110.35,1200
283,110.37,110.4,110.36,110.37,1800
284,110.34,110.385,110.34,110.385,6299
285,110.32,110.35,110.32,110.35,1064
286,110.3242,110.35,110.3,110.32,671
287,110.38,110.38,110.32,110.32,3362
288,110.3999,110.3999,110.37,110.385,1700
289,110.42,110.42,110.4,110.4,1106
290,110.42,110.43,110.41,110.41,709
291,110.47,110.48,110.4203,110.4203,3861
292,110.48,110.48,110.46,110.47,2318
293,110.41,110.45,110.41,110.45,1900
294,110.4199,110.42,110.4,110.4,400
295,110.43,110.44,110.4,110.4,2091
296,110.41,110.47,110.41,110.45,3600
298,110.395,110.395,110.37,110.39,400
299,110.33,110.395,110.33,110.395,5600
300,110.21,110.32,110.21,110.32,1500
301,110.23,110.28,110.21,110.24,3300
302,110.205,110.27,110.19,110.255,3600
303,110.185,110.25,110.16,110.22,3400
304,110.21,110.23,110.21,110.22,995
305,110.2,110.22,110.18,110.22,1304
306,110.24,110.24,110.22,110.22,1100
307,110.35,110.35,110.26,110.26,1100
308,110.3,110.32,110.27,110.32,900
309,110.32,110.32,110.28,110.28,1500
310,110.3146,110.32,110.29,110.29,612
311,110.235,110.285,110.21,110.28,1484
312,110.26,110.26,110.26,110.26,300
313,110.23,110.23,110.23,110.23,225
314,110.25,110.25,110.25,110.25,200
315,110.18,110.26,110.18,110.26,600
316,110.23,110.23,110.175,110.175,51909
317,110.22,110.23,110.22,110.23,200
318,110.24,110.24,110.24,110.24,900
319,110.215,110.26,110.21,110.26,3196
320,110.26,110.26,110.25,110.25,492
321,110.1911,110.25,110.1911,110.25,1703
322,110.23,110.23,110.2,110.2,1106
323,110.21,110.22,110.21,110.21,1000
324,110.195,110.22,110.195,110.22,645
325,110.2,110.2,110.19,110.19,1432
326,110.19,110.195,110.18,110.195,400
327,110.19,110.19,110.19,110.19,200
328,110.18,110.18,110.18,110.18,300
329,110.29,110.29,110.19,110.19,3100
330,110.28,110.28,110.25,110.25,2800
331,110.295,110.295,110.295,110.295,400
332,110.34,110.34,110.28,110.29,3500
333,110.33,110.38,110.33,110.343,2229
334,110.29,110.325,110.29,110.325,700
335,110.31,110.32,110.29,110.29,2903
336,110.28,110.305,110.275,110.305,1229
337,110.28,110.28,110.275,110.275,200
339,110.21,110.26,110.21,110.26,1400
340,110.24,110.25,110.24,110.25,875
341,110.23,110.24,110.21,110.22,1200
342,110.2,110.235,110.2,110.23,2000
343,110.21,110.21,110.18,110.19,2536
344,110.22,110.22,110.2,110.2,1811
345,110.24,110.24,110.2143,110.22,2782
346,110.2,110.235,110.2,110.23,2604
347,110.22,110.22,110.2,110.2,600
348,110.2,110.225,110.19,110.225,2500
349,110.22,110.22,110.2,110.21,600
350,110.25,110.27,110.25,110.25,2762
351,110.28,110.28,110.24,110.24,1740
352,110.265,110.28,110.265,110.28,2660
353,110.25,110.28,110.25,110.26,1700
354,110.31,110.31,110.25,110.26,4041
355,110.33,110.33,110.33,110.33,100
356,110.33,110.33,110.31,110.31,350
357,110.3,110.34,110.3,110.33,3759
358,110.28,110.29,110.28,110.29,1100
359,110.37,110.37,110.28,110.28,2842
360,110.41,110.41,110.41,110.41,100
361,110.29,110.38,110.29,110.36,2270
362,110.32,110.32,110.3,110.3,947
363,110.32,110.32,110.28,110.31,1100
364,110.305,110.31,110.3,110.3,4528
365,110.315,110.315,110.3,110.3,2487
366,110.33,110.33,110.31,110.315,6131
367,110.3601,110.37,110.31,110.325,5562
368,110.41,110.41,110.35,110.36,2869
369,110.41,110.41,110.4,110.41,400
370,110.375,110.4,110.35,110.4,4053
371,110.3595,110.38,110.33,110.37,3461
372,110.33,110.36,110.33,110.36,2300
373,110.33,110.33,110.31,110.32,6090
374,110.325,110.33,110.32,110.325,6810
375,110.33,110.34,110.3,110.325,16497
376,110.25,110.33,110.25,110.315,5400
377,110.245,110.26,110.235,110.24,6829
378,110.19,110.245,110.18,110.245,3800
379,110.1925,110.21,110.19,110.195,7337
380,110.175,110.205,110.165,110.18,9273
381,110.19,110.19,110.16,110.18,9088
382,110.22,110.22,110.19,110.19,5786
383,110.265,110.3,110.22,110.22,12297
384,110.3,110.3,110.25,110.265,8195
385,110.29,110.31,110.29,110.295,7481
386,110.37,110.37,110.29,110.3,28154
387,110.3,110.37,110.28,110.37,10106
388,110.36,110.385,110.27,110.29,20432
389,110.35,110.39,110.28,110.36,32600
390,110.36,110.4,110.31,110.35,49629
