EOG,EOG Resources,Energy,3,Oil & Gas Exploration & Production,54265311127,3247345
a1493040600,94.46,94.46,94.46,94.46,23589
1,94.17,94.17,93.92,93.92,2311
2,94.25,94.34,94.05,94.16,4390
3,94.11,94.28,94.11,94.275,600
4,94.12,94.17,94.11,94.11,2170
5,94.01,94.13,93.94,94.11,2470
6,93.79,93.99,93.67,93.99,10253
7,93.76,93.86,93.67,93.8,6021
8,93.63,93.8,93.63,93.68,3138
9,93.77,93.82,93.665,93.67,6060
10,93.64,93.81,93.58,93.7,7344
11,93.6499,93.659,93.58,93.58,594
12,93.68,93.75,93.62,93.66,3985
13,93.61,93.7,93.61,93.67,929
14,93.69,93.69,93.54,93.62,2037
15,93.6,93.73,93.6,93.64,1100
16,93.63,93.72,93.59,93.59,1737
17,93.56,93.64,93.542,93.64,2341
18,93.62,93.63,93.56,93.56,1065
19,93.535,93.64,93.52,93.64,1400
20,93.56,93.58,93.51,93.54,3800
21,93.485,93.56,93.485,93.56,2500
22,93.5,93.525,93.43,93.51,2530
23,93.4,93.5,93.4,93.46,1800
24,93.47,93.53,93.44,93.47,5233
25,93.44,93.475,93.41,93.43,1150
26,93.53,93.55,93.4605,93.4605,3450
27,93.52,93.57,93.52,93.54,2700
28,93.465,93.51,93.46,93.51,1600
29,93.51,93.51,93.47,93.49,900
30,93.4099,93.52,93.36,93.49,4949
31,93.41,93.41,93.32,93.35,3850
32,93.63,93.63,93.4,93.4,6122
33,93.68,93.73,93.55,93.57,4616
34,93.605,93.71,93.605,93.63,7645
35,93.61,93.69,93.61,93.66,1717
36,93.49,93.63,93.49,93.57,3513
37,93.59,93.64,93.55,93.55,1744
38,93.68,93.68,93.59,93.5911,2324
39,93.71,93.72,93.64,93.64,2752
40,93.72,93.79,93.7,93.73,5139
41,93.74,93.78,93.7,93.74,4101
42,93.715,93.78,93.7,93.75,2500
43,93.7,93.75,93.7,93.7083,1878
44,93.77,93.77,93.67,93.67,2729
45,93.88,93.88,93.8,93.8,1958
46,93.85,93.89,93.84,93.87,1777
47,93.91,93.94,93.85,93.85,3182
48,93.91,93.91,93.88,93.91,500
49,93.83,93.9,93.83,93.87,2200
50,93.92,93.94,93.84,93.84,3500
51,93.88,93.95,93.87,93.94,2349
52,93.99,93.99,93.91,93.91,2219
53,94.01,94.04,93.95,93.95,3685
54,94.02,94.03,93.97,93.98,3416
55,93.886,93.98,93.886,93.98,3200
56,93.86,93.91,93.86,93.88,3474
57,93.86,93.92,93.85,93.88,2163
58,93.85,93.9,93.82,93.84,2900
59,93.9098,93.92,93.84,93.85,2775
60,93.99,93.99,93.92,93.92,4379
61,94.03,94.03,93.98,93.99,1476
62,94.01,94.02,94,94.02,1100
63,93.97,94,93.935,94,2950
64,93.895,94.01,93.895,93.97,2410
65,93.98,94,93.93,93.93,3100
66,94.025,94.03,93.96,93.96,2100
67,94.03,94.0432,93.98,94.01,3058
68,94.04,94.05,94,94.05,2380
69,93.99,94.06,93.99,94.06,3100
70,93.89,93.97,93.89,93.97,4512
71,93.84,93.88,93.83,93.88,1200
72,93.78,93.86,93.78,93.84,5091
73,93.78,93.81,93.71,93.78,4735
74,93.78,93.82,93.72,93.78,19417
75,93.76,93.78,93.76,93.76,500
76,93.72,93.72,93.68,93.72,1200
77,93.72,93.75,93.64,93.72,12250
78,93.65,93.75,93.65,93.74,4400
79,93.68,93.78,93.67,93.67,6915
80,93.67,93.7,93.67,93.7,4400
81,93.59,93.67,93.58,93.67,5501
82,93.49,93.58,93.49,93.57,9175
83,93.485,93.58,93.45,93.51,11148
84,93.64,93.64,93.46,93.53,11777
85,93.54,93.63,93.54,93.63,4400
86,93.48,93.58,93.48,93.57,4072
87,93.536,93.54,93.49,93.49,1500
88,93.551,93.6,93.5,93.52,5018
89,93.4824,93.57,93.47,93.55,4489
90,93.55,93.62,93.53,93.53,5440
91,93.5375,93.59,93.52,93.59,6203
92,93.43,93.57,93.43,93.53,4900
93,93.46,93.49,93.42,93.43,3800
94,93.43,93.47,93.43,93.47,1495
95,93.426,93.45,93.426,93.445,716
96,93.5,93.52,93.42,93.45,12200
97,93.51,93.53,93.49,93.505,4200
98,93.56,93.56,93.51,93.51,4176
99,93.555,93.63,93.54,93.57,8214
100,93.54,93.58,93.54,93.57,4371
101,93.615,93.62,93.55,93.58,6691
102,93.62,93.67,93.62,93.62,1100
103,93.54,93.66,93.53,93.66,31251
104,93.45,93.6,93.42,93.53,16300
105,93.51,93.55,93.43,93.435,18011
106,93.47,93.6,93.43,93.49,19616
107,93.545,93.62,93.48,93.49,30749
108,93.42,93.54,93.42,93.54,2352
109,93.46,93.47,93.42,93.43,3885
110,93.52,93.57,93.46,93.46,2200
111,93.56,93.57,93.53,93.53,1500
112,93.52,93.58,93.52,93.55,700
113,93.6,93.6,93.5,93.52,2575
114,93.52,93.59,93.52,93.59,1699
115,93.52,93.52,93.46,93.48,800
116,93.57,93.57,93.48,93.52,4253
117,93.5668,93.6,93.5668,93.57,2222
118,93.545,93.6,93.54,93.57,4940
119,93.55,93.59,93.53,93.56,2250
120,93.55,93.57,93.54,93.56,2880
121,93.44,93.56,93.44,93.555,9105
122,93.48,93.48,93.4433,93.4433,1000
123,93.415,93.4512,93.41,93.45,1849
124,93.43,93.44,93.412,93.412,2374
125,93.45,93.45,93.42,93.42,2300
126,93.4166,93.46,93.4166,93.4292,6600
127,93.4375,93.46,93.41,93.41,1119
128,93.535,93.55,93.47,93.47,28010
129,93.59,93.6,93.56,93.56,1900
130,93.61,93.62,93.59,93.59,3202
131,93.69,93.72,93.6,93.6,3334
132,93.729,93.73,93.68,93.6825,3650
133,93.59,93.7,93.59,93.7,2400
134,93.58,93.6329,93.58,93.58,3265
135,93.67,93.68,93.556,93.556,1630
136,93.58,93.64,93.58,93.64,600
137,93.61,93.61,93.6,93.6,500
138,93.61,93.66,93.61,93.63,4809
139,93.58,93.6,93.58,93.59,1960
140,93.61,93.64,93.56,93.58,2403
141,93.65,93.66,93.58,93.61,4508
142,93.6101,93.68,93.61,93.64,3306
143,93.6525,93.66,93.65,93.65,1100
144,93.63,93.68,93.6,93.68,2400
145,93.64,93.64,93.61,93.617,1422
146,93.63,93.63,93.55,93.61,2200
147,93.57,93.59,93.54,93.59,1900
148,93.55,93.62,93.53,93.534,5700
149,93.55,93.56,93.52,93.54,700
150,93.5,93.52,93.48,93.52,3300
151,93.5,93.52,93.46,93.52,2452
152,93.55,93.55,93.47,93.49,4250
153,93.56,93.57,93.48,93.51,6510
154,93.58,93.63,93.55,93.57,4384
155,93.59,93.6,93.58,93.58,900
156,93.52,93.58,93.52,93.58,1781
157,93.54,93.56,93.52,93.525,4735
158,93.52,93.54,93.52,93.54,2125
159,93.54,93.56,93.51,93.52,3001
160,93.57,93.61,93.53,93.54,4133
161,93.61,93.635,93.58,93.58,1700
162,93.7,93.72,93.64,93.66,3950
163,93.741,93.77,93.72,93.73,2576
164,93.71,93.7596,93.71,93.73,1000
165,93.79,93.79,93.71,93.72,4291
166,93.79,93.83,93.79,93.8,4200
167,93.83,93.84,93.78,93.82,2400
168,93.87,93.87,93.83,93.85,2900
169,93.85,93.88,93.85,93.88,300
170,93.91,93.92,93.86,93.87,3175
171,93.9,93.92,93.9,93.9,2162
172,93.87,93.91,93.87,93.91,4671
173,93.84,93.89,93.84,93.88,1750
174,93.85,93.88,93.84,93.84,1900
175,93.92,93.92,93.84,93.85,3383
176,93.93,93.95,93.87,93.91,7879
177,94,94,93.94,93.94,5100
178,93.945,94.01,93.94,94.01,3030
179,93.97,93.98,93.94,93.95,1705
181,93.95,93.99,93.95,93.9621,2783
182,93.98,93.98,93.95,93.98,700
183,93.93,93.95,93.93,93.95,1667
184,93.9,93.92,93.89,93.92,2200
185,93.92,93.92,93.88,93.9,4057
186,93.91,93.93,93.91,93.91,2400
187,93.94,93.96,93.925,93.94,3050
188,93.98,94,93.94,93.95,1800
189,93.98,93.98,93.96,93.97,900
190,93.97,94,93.97,94,1139
191,93.95,93.98,93.95,93.96,2150
192,93.88,93.95,93.88,93.95,3307
193,93.96,93.96,93.87,93.88,3800
194,93.96,93.99,93.94,93.95,3152
195,93.9598,93.965,93.95,93.965,612
196,93.96,93.96,93.94,93.94,2233
197,93.99,94,93.97,93.97,3805
198,93.95,93.98,93.95,93.98,2400
199,93.98,93.98,93.92,93.94,4325
200,93.97,93.97,93.97,93.97,200
201,94,94.01,93.99,93.99,2296
202,94,94.02,93.98,93.99,2167
203,94.01,94.01,93.98,93.99,1700
204,93.98,94.01,93.98,93.98,1602
205,94.06,94.06,94,94.01,4999
206,94.02,94.08,94.02,94.058,2793
207,94.03,94.03,93.99,94.01,1584
208,93.97,94.0408,93.97,94.0408,2957
209,93.97,93.99,93.96,93.98,1000
210,94.07,94.07,93.9643,93.9643,2635
211,94.05,94.05,94.05,94.05,802
212,94.05,94.09,94.04,94.04,3950
213,94.1,94.1,94.065,94.065,7500
214,94.13,94.13,94.07,94.08,4127
215,94.17,94.2,94.1,94.1,6170
216,94.14,94.19,94.14,94.18,8598
217,94.2,94.2,94.14,94.145,2350
218,94.16,94.2,94.15,94.19,1200
219,94.12,94.15,94.12,94.15,1526
220,94.14,94.14,94.095,94.095,3350
221,94.115,94.14,94.11,94.13,1800
222,94.07,94.16,94.07,94.15,4050
223,94.17,94.17,94.07,94.07,2979
224,94.14,94.21,94.14,94.17,4275
225,94.22,94.24,94.14,94.15,4561
226,94.12,94.21,94.12,94.21,2100
227,94.15,94.15,94.12,94.12,200
228,94.18,94.18,94.15,94.15,1123
229,94.2,94.2,94.165,94.18,5547
230,94.26,94.27,94.18,94.19,4485
231,94.24,94.25,94.2,94.25,3700
232,94.245,94.29,94.24,94.25,3418
233,94.21,94.23,94.18,94.23,3100
234,94.21,94.225,94.19,94.195,1900
235,94.18,94.22,94.17,94.22,1100
236,94.1761,94.2,94.16,94.17,2100
237,94.17,94.21,94.17,94.1711,1300
238,94.143,94.17,94.143,94.16,900
239,94.18,94.22,94.155,94.155,3825
240,94.21,94.22,94.2,94.22,835
241,94.18,94.23,94.18,94.205,2030
242,94.19,94.19,94.19,94.19,700
243,94.16,94.18,94.16,94.18,800
244,94.12,94.16,94.12,94.15,2565
245,94.1,94.1,94.1,94.1,400
246,94.0814,94.1,94.07,94.1,6898
247,94.11,94.11,94.08,94.08,1639
248,94.09,94.11,94.09,94.11,750
249,94.03,94.08,94.03,94.08,700
250,94.05,94.1,94.03,94.03,5700
251,94.03,94.03,94.03,94.03,100
252,94.055,94.07,94.03,94.045,2335
253,94.04,94.06,94.04,94.06,900
254,94.02,94.06,94.02,94.05,3351
255,94.04,94.05,94.03,94.03,1500
256,93.99,94.03,93.99,94.02,1785
257,93.95,93.99,93.95,93.99,1261
258,94,94.02,93.96,93.96,4128
259,94,94,94,94,600
260,94,94.001,93.98,93.99,1805
261,94.01,94.01,93.99,94,1495
262,93.97,94.01,93.97,94.01,2828
263,93.99,93.99,93.96,93.98,4028
264,93.97,93.98,93.97,93.98,1800
265,93.99,93.99,93.97,93.98,1500
266,94.008,94.02,94,94,2050
267,94.02,94.0401,94.02,94.02,2028
268,94.05,94.08,94.04,94.04,3065
269,93.98,94.0403,93.98,94.04,1764
270,94.01,94.01,93.985,94,1500
271,94.05,94.05,94.02,94.02,1450
272,94.05,94.0828,94.03,94.08,1365
273,94.01,94.03,94.01,94.03,600
274,94.08,94.08,94.01,94.01,2000
275,94.06,94.06,94.03,94.05,22921
276,94.06,94.06,94.025,94.05,1700
277,94.085,94.09,94.04,94.05,2500
278,94.09,94.1,94.08,94.09,1763
279,94.07,94.08,94.05,94.08,2100
280,94.08,94.08,94.06,94.08,650
281,94.13,94.13,94.09,94.09,600
282,94.05,94.09,94.05,94.09,1500
283,94.05,94.09,94.05,94.09,300
284,94.07,94.09,94.07,94.08,769
285,94.07,94.13,94.07,94.095,1500
286,94.12,94.18,94.1,94.11,9896
287,94.12,94.18,94.12,94.18,800
289,94.21,94.22,94.13,94.13,5217
290,94.21,94.21,94.2,94.2,200
291,94.2446,94.26,94.21,94.23,2082
292,94.27,94.27,94.22,94.22,1909
293,94.26,94.29,94.25,94.28,900
294,94.24,94.28,94.23,94.26,2104
295,94.23,94.27,94.22,94.2301,2040
296,94.17,94.21,94.17,94.21,3000
297,94.12,94.15,94.12,94.15,2250
298,94.11,94.14,94.11,94.14,300
299,94.04,94.11,94.03,94.11,3244
300,94.06,94.08,94.04,94.05,3514
301,94.11,94.11,94.055,94.06,1908
302,94.21,94.21,94.13,94.13,3100
303,94.22,94.22,94.15,94.19,3761
304,94.2,94.23,94.2,94.22,1300
305,94.2029,94.22,94.19,94.19,1500
306,94.1,94.19,94.1,94.19,4803
307,94.11,94.11,94.0999,94.0999,4300
308,94.115,94.12,94.09,94.09,2134
309,94.13,94.13,94.1,94.11,1301
310,94.1201,94.17,94.1201,94.14,900
311,94.07,94.12,94.07,94.12,2221
312,94.06,94.07,94.05,94.07,1100
313,94.065,94.07,94.05,94.055,1800
314,94.02,94.0548,93.995,94.0548,3390
315,94,94.02,94,94,1000
316,93.97,94.01,93.97,93.97,525
317,93.92,93.95,93.92,93.95,1170
318,93.88,93.92,93.88,93.92,3013
319,93.89,93.9,93.87,93.885,1200
320,93.885,93.885,93.87,93.87,800
321,93.97,93.97,93.86,93.87,3180
322,93.915,93.94,93.9,93.94,1257
323,93.92,93.92,93.91,93.91,300
324,93.89,93.94,93.885,93.91,2200
325,93.915,93.915,93.885,93.89,1634
326,93.9,93.93,93.9,93.93,700
327,93.9,93.9,93.88,93.9,612
328,93.91,93.94,93.89,93.89,3500
329,93.86,93.91,93.86,93.91,3655
330,93.83,93.88,93.82,93.88,4660
331,93.83,93.83,93.83,93.83,200
332,93.76,93.81,93.76,93.79,957
333,93.76,93.76,93.73,93.75,1600
334,93.77,93.78,93.71,93.72,2450
335,93.87,93.87,93.81,93.81,4625
336,93.9,93.9,93.84,93.86,3096
337,93.9,93.92,93.88,93.88,1000
338,93.85,93.92,93.85,93.91,1550
339,93.86,93.89,93.86,93.87,3068
340,93.92,93.93,93.885,93.9,1900
341,93.88,93.94,93.87,93.9,4076
342,93.86,93.89,93.86,93.88,900
343,93.88,93.88,93.82,93.84,1800
344,93.89,93.89,93.85,93.85,1600
345,93.94,93.94,93.86,93.88,4456
346,93.91,93.93,93.9,93.92,1573
347,93.94,93.95,93.93,93.93,2000
348,93.98,93.98,93.94,93.96,2800
349,93.89,94,93.88,93.98,3008
350,93.92,93.93,93.9,93.9,1979
351,93.93,93.96,93.93,93.94,1791
352,93.88,93.93,93.872,93.93,3700
353,93.86,93.87,93.85,93.87,1002
354,93.82,93.9,93.82,93.87,2300
355,93.8,93.81,93.79,93.81,700
356,93.8,93.83,93.77,93.81,3688
357,93.78,93.83,93.78,93.83,1030
358,93.8,93.85,93.79,93.79,4471
359,93.86,93.88,93.82,93.82,1945
360,93.82,93.89,93.82,93.89,2400
361,93.84,93.86,93.813,93.813,1800
362,93.84,93.86,93.83,93.85,2364
363,93.865,93.87,93.84,93.84,3029
364,93.87,93.89,93.86,93.86,6862
365,93.81,93.88,93.8,93.87,4509
366,93.8,93.8,93.78,93.79,2540
367,93.81,93.81,93.79,93.79,2700
368,93.89,93.89,93.81,93.81,3158
369,93.89,93.92,93.88,93.88,6396
370,93.8878,93.9,93.88,93.88,4235
371,93.87,93.9,93.87,93.89,4815
372,93.95,93.95,93.86,93.88,6321
373,93.98,93.98,93.94,93.95,7700
374,93.96,93.98,93.95,93.98,1508
375,94.01,94.01,93.92,93.955,15367
376,93.92,94.01,93.92,94.01,3293
377,93.9,93.9185,93.88,93.91,4801
378,93.89,93.91,93.88,93.9,5251
379,93.83,93.87,93.82,93.87,4900
380,93.86,93.87,93.83,93.84,5550
381,93.75,93.8799,93.75,93.8799,11707
382,93.76,93.78,93.75,93.75,3136
383,93.74,93.77,93.74,93.76,7549
384,93.73,93.76,93.73,93.74,8233
385,93.7,93.74,93.68,93.735,9016
386,93.69,93.71,93.68,93.7,7955
387,93.73,93.73,93.67,93.68,12170
388,93.76,93.76,93.72,93.74,14499
389,93.7525,93.81,93.7,93.75,20536
390,93.74,93.82,93.73,93.77,50299
