PPG,PPG Industries,Materials,8,Specialty Chemicals,27609689994,1538252
a1493040660,108.04,108.04,107.33,108.03,500
2,107.595,107.95,107.32,107.81,23119
3,107.73,108.07,107.14,107.76,26324
4,107.71,107.95,107.41,107.6,6400
5,107.89,107.98,107.515,107.6032,4446
6,108.03,108.21,107.8142,107.835,11672
7,107.75,108,107.42,107.95,17222
8,107.61,107.75,107.58,107.75,12098
9,107.625,107.69,107.458,107.65,2501
10,107.7,107.7,107.62,107.69,14229
11,107.48,107.75,107.44,107.7,34470
12,107.46,107.5264,107.44,107.5264,2150
13,107.42,107.75,107.42,107.5,20937
14,107.59,107.6414,107.39,107.39,5175
15,107.68,107.71,107.62,107.65,1600
16,107.69,107.73,107.61,107.66,18003
17,107.79,107.8,107.65,107.65,6780
18,107.86,107.86,107.75,107.79,10754
19,107.67,108.03,107.67,107.86,16500
20,107.77,107.82,107.75,107.75,4500
21,107.8,107.85,107.77,107.78,7920
22,107.8,107.8,107.75,107.8,10248
23,107.77,107.8,107.72,107.78,4100
24,107.99,107.99,107.74,107.78,21484
25,107.99,108,107.92,107.98,4500
26,108,108,107.95,107.99,7300
27,107.98,108,107.96,107.99,8000
28,108.01,108.05,107.98,108,7219
29,108.045,108.05,108.02,108.05,8200
30,108.03,108.05,107.95,108.05,14620
31,107.86,108.05,107.76,108.03,19878
32,107.94,108.03,107.9,107.9,7500
33,107.94,107.99,107.86,107.92,3300
34,107.9279,107.99,107.92,107.99,1000
35,107.945,107.97,107.92,107.92,901
36,107.87,107.945,107.83,107.91,8300
37,107.95,108,107.87,107.88,7000
38,107.94,107.99,107.9,107.91,2082
39,107.93,107.94,107.86,107.9,1800
40,108,108.04,107.87,107.88,7200
41,108,108,107.93,107.98,3600
42,107.98,108.005,107.94,108,3100
43,107.96,108.01,107.94,108,3100
44,108.02,108.02,107.925,107.94,1200
45,107.99,108,107.965,107.974,800
46,107.94,107.97,107.91,107.97,1701
47,107.92,107.98,107.92,107.95,4300
48,107.88,107.91,107.88,107.91,700
49,107.92,107.92,107.86,107.91,3301
50,108.01,108.01,107.92,107.95,1900
51,108,108.03,107.97,108.01,4379
52,108.02,108.03,107.97,107.98,3100
53,107.905,108.005,107.905,108,2700
54,107.91,107.94,107.91,107.94,600
55,107.925,107.94,107.9189,107.9242,801
56,107.94,107.96,107.91,107.92,8074
57,107.9,107.95,107.88,107.92,3700
58,107.925,107.95,107.9,107.91,14597
59,107.92,107.94,107.9,107.9,1800
60,107.92,107.92,107.86,107.9,4800
61,107.88,107.91,107.87,107.89,1399
62,107.9,107.92,107.88,107.9,1200
63,107.81,107.92,107.81,107.88,3900
64,107.76,107.82,107.74,107.8,5000
65,107.83,107.83,107.7,107.75,3800
66,107.85,107.905,107.82,107.83,11259
67,107.85,107.87,107.785,107.85,3500
68,107.89,107.9,107.86,107.89,98900
69,107.87,107.95,107.86,107.88,5464
70,107.91,107.95,107.89,107.89,4000
71,107.91,107.915,107.87,107.91,11500
72,107.93,107.95,107.9,107.9,4300
73,107.95,107.95,107.94,107.94,700
74,107.82,107.95,107.78,107.93,6262
75,107.75,107.82,107.75,107.8,1400
76,107.75,107.77,107.7,107.77,4200
77,107.76,107.78,107.74,107.75,5818
78,107.76,107.76,107.74,107.74,800
79,107.8,107.8,107.75,107.75,1600
80,107.75,107.79,107.73,107.78,3106
81,107.76,107.79,107.7399,107.7399,1950
82,107.76,107.77,107.75,107.75,900
83,107.76,107.78,107.76,107.77,600
84,107.68,107.77,107.66,107.77,2092
85,107.64,107.72,107.64,107.69,5002
86,107.69,107.69,107.645,107.67,900
87,107.74,107.74,107.68,107.69,2300
88,107.7,107.75,107.68,107.74,1245
89,107.64,107.72,107.63,107.72,900
90,107.7,107.71,107.635,107.635,5002
91,107.65,107.7,107.64,107.7,4100
92,107.62,107.66,107.62,107.64,2934
93,107.63,107.65,107.62,107.65,3192
94,107.67,107.68,107.63,107.64,2500
95,107.7,107.7,107.66,107.66,3875
96,107.67,107.695,107.63,107.695,4850
97,107.63,107.66,107.585,107.66,5325
98,107.59,107.635,107.57,107.635,2897
99,107.515,107.6,107.48,107.59,9988
100,107.53,107.57,107.48,107.53,6200
101,107.51,107.57,107.5,107.5,9501
102,107.51,107.56,107.51,107.525,1500
103,107.45,107.51,107.44,107.51,3407
104,107.42,107.44,107.37,107.44,3614
105,107.39,107.48,107.39,107.43,4875
106,107.432,107.45,107.37,107.38,15275
107,107.36,107.435,107.355,107.42,3600
108,107.38,107.38,107.29,107.34,9175
109,107.39,107.58,107.39,107.41,17576
110,107.43,107.46,107.39,107.395,4074
111,107.41,107.45,107.4,107.45,2784
112,107.39,107.445,107.39,107.41,5400
113,107.235,107.38,107.235,107.36,12327
114,107.28,107.35,107.21,107.235,12900
115,107.16,107.28,107.16,107.28,9633
116,106.98,107.24,106.9,107.17,13474
117,107.17,107.17,106.93,106.93,6655
118,107.22,107.23,107.03,107.175,8844
119,107.135,107.23,107.12,107.2,3751
120,107.28,107.29,107.15,107.15,2500
121,107.32,107.33,107.28,107.28,2700
122,107.3,107.32,107.26,107.32,3210
123,107.36,107.36,107.32,107.33,1000
124,107.35,107.38,107.33,107.38,2800
125,107.32,107.34,107.28,107.34,3699
126,107.38,107.38,107.32,107.32,1900
127,107.405,107.42,107.3766,107.3766,12821
128,107.44,107.5,107.41,107.41,7527
129,107.44,107.45,107.43,107.445,2000
130,107.48,107.5,107.45,107.45,3164
131,107.55,107.55,107.43,107.47,2600
132,107.44,107.535,107.44,107.535,3646
133,107.54,107.54,107.45,107.46,3500
134,107.58,107.61,107.5,107.52,4057
135,107.55,107.58,107.55,107.56,1200
136,107.56,107.58,107.52,107.55,4349
137,107.56,107.58,107.54,107.54,1096
138,107.54,107.57,107.51,107.57,1000
139,107.52,107.55,107.52,107.54,600
140,107.53,107.55,107.53,107.53,600
141,107.54,107.55,107.5,107.54,3222
142,107.53,107.55,107.52,107.53,1300
143,107.57,107.57,107.51,107.52,3300
144,107.54,107.58,107.51,107.58,2901
145,107.53,107.58,107.53,107.56,2700
146,107.5,107.55,107.5,107.55,700
147,107.52,107.52,107.49,107.49,1137
148,107.49,107.54,107.49,107.53,3497
149,107.47,107.525,107.45,107.51,7632
150,107.44,107.46,107.4,107.46,6449
151,107.48,107.48,107.43,107.44,900
152,107.47,107.47,107.455,107.465,1350
153,107.51,107.52,107.47,107.48,4200
154,107.39,107.51,107.39,107.51,1300
155,107.31,107.38,107.29,107.38,1400
156,107.29,107.33,107.29,107.31,1500
157,107.22,107.31,107.22,107.29,2331
158,107.22,107.27,107.17,107.18,2675
159,107.239,107.26,107.2083,107.21,3450
160,107.2668,107.28,107.2668,107.27,1066
161,107.265,107.28,107.23,107.26,2901
162,107.22,107.26,107.2,107.26,2300
163,107.22,107.235,107.22,107.22,1000
164,107.155,107.18,107.15,107.18,400
165,107.18,107.2,107.15,107.15,4700
166,107.2115,107.22,107.18,107.19,1950
167,107.18,107.21,107.17,107.21,1800
168,107.17,107.21,107.1507,107.165,4258
169,107.19,107.19,107.13,107.15,1000
170,107.21,107.22,107.2,107.2,1100
171,107.16,107.215,107.16,107.215,1000
172,107.2,107.2,107.15,107.15,1523
173,107.1563,107.2,107.1563,107.2,1879
174,107.18,107.18,107.18,107.18,100
175,107.18,107.2,107.18,107.19,1699
176,107.235,107.25,107.15,107.168,3356
177,107.21,107.24,107.2,107.24,2100
178,107.28,107.28,107.21,107.21,5800
179,107.32,107.32,107.32,107.32,200
180,107.335,107.35,107.32,107.34,2772
181,107.42,107.42,107.3371,107.3371,3579
182,107.46,107.46,107.41,107.41,2025
183,107.46,107.48,107.44,107.45,3125
184,107.51,107.51,107.47,107.47,3276
185,107.51,107.52,107.48,107.495,3099
186,107.49,107.5,107.47,107.5,800
187,107.49,107.49,107.49,107.49,100
188,107.49,107.49,107.43,107.4786,4500
189,107.44,107.47,107.42,107.47,600
190,107.44,107.45,107.41,107.425,2800
191,107.48,107.48,107.4401,107.4401,2820
192,107.5,107.5,107.46,107.46,1325
193,107.505,107.51,107.48,107.495,1300
194,107.51,107.51,107.4973,107.4983,1200
195,107.5211,107.5211,107.52,107.52,612
196,107.54,107.54,107.51,107.52,2248
197,107.46,107.53,107.46,107.53,900
198,107.45,107.47,107.45,107.47,600
199,107.449,107.449,107.449,107.449,100
200,107.49,107.5,107.45,107.45,1630
201,107.5,107.52,107.49,107.49,3900
202,107.52,107.53,107.5,107.5,1625
203,107.52,107.52,107.51,107.52,500
204,107.53,107.55,107.52,107.52,1000
205,107.54,107.54,107.535,107.535,200
207,107.53,107.53,107.5,107.5,2700
208,107.5,107.51,107.5,107.51,500
209,107.545,107.56,107.5,107.51,4748
211,107.58,107.58,107.56,107.56,800
212,107.52,107.57,107.47,107.56,15461
213,107.491,107.54,107.4892,107.53,6975
214,107.4,107.5,107.39,107.5,5700
215,107.43,107.44,107.39,107.39,2000
216,107.41,107.46,107.38,107.44,2192
218,107.39,107.39,107.33,107.37,2100
219,107.4,107.4,107.4,107.4,200
220,107.47,107.48,107.38,107.39,2100
221,107.45,107.48,107.44,107.46,1100
222,107.45,107.46,107.44,107.44,1199
223,107.44,107.44,107.44,107.44,100
224,107.49,107.49,107.43,107.46,2300
225,107.49,107.5,107.44,107.5,1330
226,107.48,107.48,107.45,107.45,800
227,107.465,107.48,107.465,107.48,200
228,107.52,107.53,107.49,107.49,2200
229,107.55,107.55,107.48,107.51,2640
230,107.51,107.56,107.51,107.51,1500
231,107.55,107.55,107.54,107.54,465
232,107.52,107.57,107.52,107.57,1400
233,107.61,107.61,107.48,107.48,1501
234,107.57,107.63,107.55,107.63,2700
235,107.53,107.58,107.52,107.58,1600
236,107.49,107.52,107.48,107.52,1300
237,107.44,107.5,107.44,107.47,1465
238,107.47,107.49,107.44,107.44,2700
239,107.475,107.48,107.46,107.48,565
240,107.44,107.5,107.44,107.48,3600
241,107.49,107.49,107.45,107.45,1865
242,107.47,107.49,107.44,107.49,1000
243,107.47,107.47,107.44,107.44,1300
244,107.5,107.5,107.48,107.48,1300
245,107.49,107.54,107.47,107.49,4327
246,107.51,107.51,107.48,107.5,897
247,107.54,107.54,107.51,107.52,906
248,107.54,107.55,107.5,107.52,2426
249,107.5,107.54,107.4701,107.54,1710
250,107.53,107.53,107.52,107.52,300
251,107.5234,107.54,107.52,107.53,550
252,107.54,107.54,107.51,107.54,465
253,107.51,107.52,107.5,107.52,1900
254,107.5,107.52,107.49,107.52,665
255,107.46,107.5,107.46,107.5,1600
256,107.45,107.45,107.45,107.45,300
257,107.49,107.49,107.43,107.43,1400
258,107.48,107.52,107.48,107.5,1200
259,107.5,107.5,107.47,107.48,1166
260,107.51,107.51,107.4795,107.5,429
261,107.49,107.49,107.49,107.49,200
262,107.48,107.5,107.46,107.47,3100
263,107.49,107.49,107.48,107.48,500
264,107.49,107.5,107.49,107.5,500
265,107.5044,107.52,107.49,107.5,3190
266,107.5,107.557,107.47,107.5035,5146
267,107.51,107.51,107.51,107.51,100
268,107.49,107.51,107.49,107.51,700
269,107.49,107.5,107.46,107.48,2700
270,107.49,107.49,107.49,107.49,300
271,107.46,107.49,107.46,107.48,900
272,107.47,107.49,107.46,107.49,600
273,107.45,107.45,107.45,107.45,100
274,107.4599,107.4599,107.43,107.44,1090
275,107.496,107.496,107.44,107.46,2761
276,107.48,107.5,107.48,107.5,1100
277,107.48,107.48,107.48,107.48,100
278,107.53,107.53,107.51,107.51,700
279,107.53,107.53,107.49,107.52,1500
280,107.49,107.54,107.46,107.54,4673
281,107.45,107.49,107.45,107.49,1100
282,107.42,107.45,107.41,107.45,1645
283,107.46,107.46,107.4319,107.4319,908
284,107.42,107.47,107.4108,107.45,1920
285,107.48,107.52,107.44,107.44,2000
286,107.52,107.52,107.5,107.5,700
287,107.56,107.56,107.45,107.52,2975
288,107.63,107.64,107.52,107.52,3016
289,107.6,107.66,107.56,107.63,4078
290,107.69,107.69,107.58,107.58,2811
291,107.67,107.69,107.62,107.63,1800
292,107.64,107.7,107.62,107.67,3900
293,107.71,107.71,107.66,107.68,2200
294,107.69,107.725,107.67,107.7,3500
295,107.68,107.72,107.62,107.69,2400
296,107.71,107.71,107.66,107.68,2500
297,107.67,107.74,107.65,107.73,2300
298,107.69,107.71,107.64,107.64,1600
299,107.72,107.74,107.67,107.7,2500
300,107.68,107.71,107.68,107.71,700
301,107.71,107.73,107.68,107.68,1601
302,107.75,107.75,107.72,107.72,3723
303,107.73,107.74,107.7,107.73,3717
304,107.73,107.74,107.7,107.7,1800
305,107.7,107.74,107.7,107.71,900
306,107.68,107.71,107.67,107.69,900
307,107.7,107.71,107.68,107.68,700
308,107.72,107.72,107.67,107.69,600
310,107.66,107.72,107.66,107.69,4817
311,107.7,107.7,107.67,107.67,500
312,107.75,107.75,107.68,107.7,2400
313,107.7,107.75,107.68,107.75,3411
314,107.7,107.72,107.68,107.7,1400
315,107.75,107.86,107.71,107.71,10279
316,107.77,107.77,107.73,107.73,2000
317,107.77,107.77,107.75,107.77,780
318,107.77,107.8099,107.77,107.77,5000
319,107.81,107.85,107.79,107.79,1900
320,107.86,107.9,107.79,107.8,7163
321,107.88,107.9,107.86,107.86,7000
322,107.89,107.9093,107.875,107.88,3053
323,107.88,107.91,107.85,107.9099,16064
324,107.94,107.94,107.83,107.86,9047
325,107.96,108.01,107.9,107.94,15250
326,108.01,108.01,107.95,107.96,3759
327,108,108.02,107.98,107.99,12800
328,107.99,108.01,107.98,107.99,4400
329,108,108.01,107.98,108,7300
330,108,108,108,108,400
331,108,108.01,107.98,108,7287
332,108.01,108.01,108,108,3108
333,108.08,108.08,108.02,108.02,4711
334,108.07,108.1,108.04,108.06,8900
335,108.08,108.09,108.04,108.08,1100
336,108.14,108.14,108.06,108.06,2400
337,108.16,108.18,108.12,108.15,4620
338,108.18,108.22,108.11,108.14,15200
339,108.2,108.21,108.16,108.17,4456
340,108.16,108.2,108.16,108.17,1750
341,108.06,108.16,108,108.14,9914
342,108.06,108.07,108.021,108.06,1210
343,108.07,108.07,108.02,108.05,4124
344,108.07,108.07,108.04,108.07,1500
345,108.06,108.06,108.04,108.05,1200
346,108.06,108.06,108.04,108.04,403
348,108.0157,108.06,108,108.03,2901
349,108,108.03,108,108,12275
350,108,108.02,108,108.01,2200
351,108.07,108.07,108.01,108.01,4480
352,108.06,108.09,108.03,108.03,3733
353,108.06,108.07,108,108.07,5740
354,108,108.03,107.99,108.03,3457
355,108.03,108.03,108,108,4115
356,108.03,108.05,108,108.03,7907
357,108.04,108.05,108.04,108.05,300
358,108.0225,108.07,108,108,5161
359,108.08,108.09,108.05,108.05,1500
360,108.09,108.09,108.06,108.0799,1039
361,108.07,108.0825,108.06,108.07,3849
362,108.075,108.09,108.06,108.07,1900
363,108.066,108.09,108.06,108.09,900
364,108.03,108.0799,108.02,108.06,4038
365,108.04,108.06,108.02,108.04,3700
366,108.09,108.11,108.03,108.04,4400
367,108.1199,108.12,108.08,108.08,2255
368,108.17,108.17,108.12,108.12,2280
369,108.08,108.17,108.05,108.16,4500
370,108.07,108.08,108.06,108.065,3288
371,108.06,108.08,108.05,108.07,4351
372,108.1,108.1,108.06,108.06,3965
373,108.05,108.1,108.05,108.09,3755
374,108.14,108.14,108.055,108.06,3975
375,108.06,108.16,108.04,108.15,11800
376,108.06,108.09,108.0599,108.07,3650
377,108.085,108.1,107.975,108.06,19059
378,108.04,108.1,108.03,108.1,4900
379,108.02,108.05,108.01,108.05,2634
380,108,108.02,108,108.01,12328
381,108.03,108.05,108,108.01,8358
382,108.02,108.035,108,108.035,5411
383,108.03,108.03,108.01,108.01,5714
384,108.04,108.04,108,108.02,8278
385,108.02,108.04,108.01,108.03,8609
386,108.01,108.03,108.005,108.02,15404
387,108.04,108.05,108.01,108.02,19019
388,108,108.05,108,108.05,20902
389,108,108.07,108,108,31397
