EOG,EOG Resources,Energy,3,Oil & Gas Exploration & Production,55605841991,3458970
a1500557400,94.75,95,94.75,95,39244
1,95.235,95.24,94.66,94.66,38472
2,95.08,95.23,94.91,95.23,5752
3,95.05,95.14,94.95,95.08,15810
4,95.065,95.11,94.96,95.05,10490
5,95.05,95.09,94.94,95.03,7200
6,94.85,95.01,94.821,94.98,12606
7,94.925,95,94.835,94.835,14703
8,94.95,95.01,94.84,94.925,17153
9,95.08,95.13,94.91,94.92,9659
10,95.075,95.17,94.96,95.12,17104
11,95.19,95.2,95.05,95.09,7819
12,95.1312,95.21,95.08,95.21,5379
13,95.03,95.14,94.99,95.14,8723
14,95.05,95.05,94.966,94.99,3168
15,95.04,95.09,95.02,95.02,3500
16,95,95.0999,94.9775,95.06,13176
17,95.03,95.04,94.97,95.01,22120
18,95.1,95.1,94.98,95.03,9902
19,95.06,95.11,95.02,95.09,9000
20,95.1,95.1,95.02,95.04,14051
21,95.18,95.19,95.074,95.1,4324
22,95.23,95.255,95.13,95.13,10659
23,95.36,95.36,95.19,95.225,17200
24,95.5,95.51,95.33,95.37,25949
25,95.6,95.65,95.51,95.51,18899
26,95.72,95.74,95.62,95.63,24267
27,95.54,95.74,95.52,95.7183,10984
28,95.52,95.58,95.472,95.55,9036
29,95.52,95.59,95.48,95.51,10242
30,95.49,95.5,95.43,95.49,11586
31,95.41,95.52,95.4,95.475,15650
32,95.53,95.53,95.4,95.41,10495
33,95.49,95.53,95.45,95.53,25022
34,95.44,95.48,95.37,95.46,20855
35,95.505,95.52,95.43,95.46,9032
36,95.475,95.52,95.4,95.52,17124
37,95.4499,95.53,95.4,95.47,9147
38,95.56,95.56,95.45,95.45,6658
39,95.56,95.56,95.49,95.56,8618
40,95.52,95.57,95.5,95.54,20636
41,95.51,95.58,95.47,95.52,50366
42,95.5,95.51,95.42,95.5,36096
43,95.585,95.605,95.5,95.5,30252
44,95.67,95.71,95.58,95.59,14370
45,95.59,95.72,95.56,95.69,10679
46,95.48,95.595,95.48,95.595,8833
47,95.49,95.52,95.43,95.48,24402
48,95.52,95.53,95.438,95.49,19433
49,95.38,95.53,95.32,95.5176,39170
50,95.33,95.38,95.31,95.38,2468
51,95.19,95.35,95.18,95.32,18568
52,95.16,95.2,95.15,95.2,2200
53,95.15,95.18,95.14,95.16,5382
54,95.23,95.27,95.1301,95.1301,4317
55,95.32,95.34,95.165,95.23,29595
56,95.2232,95.38,95.2232,95.32,34642
57,95.29,95.32,95.18,95.24,5989
58,95.36,95.37,95.28,95.28,2330
59,95.33,95.33,95.27,95.33,3869
60,95.43,95.43,95.33,95.34,5400
61,95.43,95.5,95.42,95.42,3922
62,95.4114,95.45,95.3,95.36,7865
63,95.43,95.44,95.32,95.39,15000
64,95.36,95.415,95.345,95.415,8972
65,95.4,95.4,95.3,95.34,4900
66,95.31,95.41,95.29,95.383,7440
67,95.39,95.39,95.32,95.32,23300
68,95.32,95.41,95.29,95.4,10161
69,95.135,95.34,95.12,95.315,41997
70,95.165,95.21,95.08,95.15,51654
71,94.87,95.17,94.85,95.165,31445
72,94.86,94.92,94.84,94.88,39284
73,94.84,94.87,94.81,94.83,17318
74,94.905,94.92,94.81,94.8304,25667
75,94.99,95,94.88,94.905,9807
76,95.06,95.06,94.98,94.99,13922
77,95.21,95.235,95.09,95.09,18910
78,95.25,95.27,95.18,95.23,2710
79,95.13,95.205,95.13,95.19,6831
80,95.12,95.2,95.1,95.1,3606
81,95.04,95.14,95.01,95.11,6024
82,94.98,95.09,94.975,95.07,23087
83,95.04,95.05,94.9406,94.96,13700
84,95.14,95.14,95.07,95.07,2965
85,95.18,95.18,95.135,95.135,1455
86,95.13,95.18,95.1275,95.14,4393
87,95.12,95.22,95.12,95.15,10461
88,95.1,95.1,94.985,95.09,14175
89,95.07,95.14,95.05,95.14,1000
90,95.13,95.13,95.01,95.03,3711
91,95.035,95.13,95.02,95.13,3525
92,94.97,95.02,94.955,95.015,6727
93,95.02,95.03,94.98,94.98,5300
94,95.01,95.0516,95.01,95.03,3146
95,95,95.035,94.99,95.03,9410
96,94.93,95.04,94.85,94.995,21093
97,94.8,94.9,94.78,94.9,22526
98,94.81,94.85,94.79,94.795,11358
99,94.84,94.865,94.8,94.8,21299
100,94.77,94.86,94.76,94.85,21900
101,94.76,94.81,94.74,94.74,31960
102,94.88,94.89,94.755,94.76,25783
103,94.69,94.9,94.68,94.88,18321
104,94.62,94.705,94.49,94.705,28088
105,94.61,94.68,94.59,94.63,7780
106,94.47,94.61,94.47,94.58,24523
107,94.53,94.56,94.42,94.43,9100
108,94.57,94.62,94.56,94.56,1750
109,94.7,94.7,94.54,94.57,4315
110,94.65,94.7,94.64,94.7,3725
111,94.69,94.71,94.66,94.66,1100
112,94.66,94.68,94.61,94.68,2800
113,94.8,94.8,94.65,94.65,16505
114,94.78,94.8,94.77,94.8,3132
115,94.85,94.87,94.78,94.78,24008
116,94.83,94.91,94.82,94.83,8279
117,94.81,94.86,94.78,94.81,13308
118,94.81,94.84,94.79,94.815,3565
119,94.7996,94.83,94.76,94.79,4254
120,94.805,94.82,94.74,94.76,7194
121,94.92,94.93,94.8,94.82,15068
122,94.825,94.95,94.8,94.92,8700
123,94.85,94.89,94.82,94.825,4100
124,94.87,94.9,94.84,94.85,11972
125,94.855,94.87,94.795,94.87,14100
126,94.69,94.84,94.67,94.84,12038
127,94.49,94.7,94.46,94.68,35187
128,94.315,94.49,94.2976,94.48,6056
129,94.34,94.4,94.33,94.33,30695
130,94.32,94.44,94.32,94.34,11865
131,94.3,94.41,94.3,94.3,6077
132,94.29,94.31,94.24,94.3,32474
133,94.3,94.31,94.24,94.2713,43813
134,94.31,94.32,94.28,94.28,15500
135,94.41,94.44,94.31,94.31,8100
136,94.5,94.5,94.415,94.44,19013
137,94.4899,94.62,94.46,94.52,14726
138,94.3164,94.46,94.3,94.46,43602
139,94.39,94.39,94.31,94.32,12100
140,94.38,94.4,94.3,94.39,4200
141,94.39,94.47,94.38,94.38,6900
142,94.4,94.47,94.4,94.41,11400
143,94.4168,94.42,94.35,94.38,4379
144,94.4355,94.44,94.37,94.41,5086
145,94.4,94.465,94.4,94.42,3400
146,94.41,94.45,94.395,94.41,4907
147,94.31,94.4,94.29,94.4,3757
148,94.33,94.33,94.3,94.3,4102
149,94.41,94.41,94.35,94.35,1617
150,94.44,94.44,94.38,94.39,2430
151,94.365,94.44,94.365,94.44,4075
152,94.39,94.4,94.36,94.36,4253
153,94.45,94.45,94.38,94.38,1300
154,94.5,94.53,94.45,94.48,7621
155,94.53,94.53,94.49,94.5,6058
156,94.608,94.62,94.52,94.54,1860
157,94.45,94.57,94.45,94.57,2301
158,94.47,94.51,94.45,94.45,2600
159,94.4616,94.4616,94.43,94.45,2008
160,94.4552,94.4552,94.4552,94.4552,200
161,94.42,94.47,94.42,94.442,3002
162,94.47,94.47,94.43,94.43,1100
163,94.52,94.54,94.48,94.48,1957
164,94.53,94.57,94.51,94.54,2000
165,94.62,94.62,94.55,94.55,3448
166,94.66,94.67,94.59,94.64,2100
167,94.64,94.67,94.62,94.66,1700
168,94.725,94.725,94.69,94.71,7600
169,94.78,94.8,94.74,94.74,1755
170,94.81,94.81,94.76,94.77,1300
171,94.83,94.84,94.81,94.83,2250
172,94.74,94.83,94.74,94.83,2641
173,94.75,94.78,94.705,94.74,6420
174,94.755,94.77,94.75,94.7524,4000
175,94.785,94.785,94.73,94.75,3000
176,94.69,94.78,94.69,94.77,2150
177,94.69,94.76,94.69,94.71,5550
178,94.8,94.8,94.715,94.74,11350
179,94.81,94.83,94.8,94.81,1327
180,94.79,94.81,94.76,94.81,8647
181,94.76,94.84,94.74,94.805,17249
182,94.78,94.8,94.73,94.779,6006
183,94.76,94.81,94.74,94.78,13407
184,94.73,94.77,94.73,94.77,9183
185,94.74,94.77,94.73,94.745,25037
186,94.72,94.74,94.72,94.73,1600
187,94.69,94.72,94.6799,94.71,4066
188,94.67,94.68,94.66,94.67,4274
189,94.64,94.69,94.64,94.665,7301
190,94.7,94.7,94.63,94.64,36266
191,94.65,94.7086,94.64,94.7086,3200
192,94.66,94.66,94.631,94.631,1850
193,94.6,94.63,94.6,94.63,2300
194,94.645,94.645,94.59,94.59,5101
195,94.59,94.65,94.58,94.64,19937
196,94.66,94.68,94.6,94.6,13900
197,94.66,94.66,94.64,94.65,4750
198,94.62,94.67,94.62,94.67,2100
199,94.63,94.64,94.63,94.63,1800
200,94.64,94.67,94.63,94.63,3800
201,94.68,94.69,94.64,94.6548,2745
202,94.7,94.7,94.65,94.6889,3461
203,94.64,94.69,94.64,94.69,2500
204,94.67,94.67,94.65,94.65,2041
205,94.67,94.68,94.66,94.66,1721
206,94.67,94.69,94.67,94.67,2400
207,94.65,94.68,94.635,94.67,3086
208,94.6698,94.69,94.65,94.65,5250
209,94.68,94.68,94.67,94.67,1134
210,94.7,94.7,94.67,94.67,4186
211,94.71,94.71,94.69,94.7,5327
212,94.74,94.75,94.715,94.715,6297
213,94.74,94.76,94.73,94.73,5306
214,94.72,94.7589,94.72,94.74,3420
215,94.69,94.7199,94.67,94.7,2113
216,94.73,94.73,94.7,94.71,3200
217,94.74,94.79,94.74,94.78,1700
218,94.69,94.73,94.69,94.73,4808
219,94.72,94.72,94.68,94.68,5498
220,94.77,94.7867,94.72,94.72,2205
221,94.8,94.8,94.76,94.78,2433
222,94.8,94.84,94.8,94.81,2200
223,94.82,94.84,94.805,94.82,1900
224,94.81,94.84,94.81,94.83,3111
225,94.78,94.81,94.77,94.8,4123
226,94.82,94.82,94.78,94.79,1850
227,94.79,94.85,94.79,94.83,24286
228,94.64,94.78,94.64,94.78,9044
229,94.68,94.68,94.64,94.65,4596
230,94.65,94.68,94.65,94.67,2199
231,94.6,94.67,94.6,94.67,2400
232,94.57,94.58,94.56,94.57,2300
233,94.57,94.575,94.57,94.575,500
234,94.58,94.61,94.56,94.59,3056
235,94.515,94.56,94.515,94.56,4336
236,94.495,94.53,94.48,94.53,2750
237,94.5,94.52,94.47,94.5,1345
238,94.5,94.51,94.47,94.47,1935
239,94.46,94.5,94.44,94.49,3849
240,94.48,94.48,94.45,94.45,400
241,94.38,94.48,94.38,94.48,5022
242,94.38,94.38,94.31,94.35,6193
243,94.38,94.4,94.38,94.39,1542
244,94.45,94.47,94.42,94.42,3055
245,94.51,94.51,94.46,94.46,1200
246,94.515,94.515,94.49,94.51,2700
247,94.48,94.51,94.46,94.5,4380
248,94.48,94.48,94.42,94.45,3101
249,94.49,94.49,94.49,94.49,1300
250,94.49,94.5,94.45,94.4844,5105
251,94.51,94.52,94.49,94.49,2700
252,94.5325,94.55,94.51,94.51,2695
253,94.53,94.53,94.51,94.52,2000
254,94.51,94.515,94.49,94.51,1500
255,94.46,94.52,94.43,94.48,2948
256,94.45,94.45,94.45,94.45,700
257,94.48,94.48,94.45,94.45,2800
258,94.44,94.48,94.44,94.47,3690
259,94.42,94.44,94.4,94.44,2300
260,94.44,94.46,94.43,94.43,1640
261,94.5,94.5,94.431,94.448,2069
262,94.54,94.56,94.47,94.4802,4888
263,94.565,94.58,94.52,94.52,1355
264,94.57,94.58,94.54,94.58,3341
265,94.58,94.58,94.56,94.56,1945
266,94.54,94.56,94.53,94.56,3100
267,94.55,94.56,94.55,94.55,500
268,94.58,94.59,94.575,94.575,800
269,94.59,94.59,94.55,94.55,1291
270,94.56,94.57,94.54,94.56,2646
271,94.485,94.53,94.48,94.53,2343
272,94.5,94.5078,94.4801,94.4801,4939
273,94.5,94.51,94.5,94.5,1600
274,94.575,94.575,94.51,94.52,5251
275,94.595,94.6025,94.58,94.59,1200
276,94.58,94.59,94.54,94.58,4998
277,94.63,94.64,94.565,94.58,4079
278,94.62,94.66,94.62,94.66,2300
279,94.62,94.64,94.62,94.6211,3300
280,94.6,94.61,94.58,94.61,2857
281,94.595,94.62,94.59,94.6,4313
282,94.58,94.61,94.58,94.61,3000
283,94.66,94.69,94.595,94.61,18188
284,94.635,94.66,94.635,94.66,2500
285,94.6224,94.64,94.61,94.631,2439
286,94.55,94.63,94.55,94.63,3800
287,94.51,94.55,94.5,94.54,4909
288,94.55,94.55,94.52,94.52,1120
289,94.55,94.56,94.55,94.55,5811
290,94.6,94.61,94.55,94.55,3931
291,94.62,94.62,94.57,94.585,2441
292,94.66,94.69,94.62,94.62,2944
293,94.71,94.71,94.65,94.65,3000
294,94.735,94.75,94.72,94.74,12400
295,94.74,94.74,94.72,94.74,3743
296,94.65,94.74,94.65,94.72,3426
297,94.7,94.71,94.6616,94.6616,1823
298,94.69,94.6925,94.65,94.68,3515
299,94.735,94.74,94.6895,94.6895,16763
300,94.73,94.7629,94.721,94.735,7408
301,94.62,94.73,94.62,94.73,9287
302,94.66,94.66,94.61,94.61,3118
303,94.62,94.66,94.61,94.64,4085
304,94.585,94.64,94.585,94.64,4750
305,94.53,94.57,94.53,94.57,3754
306,94.53,94.56,94.5,94.53,6302
307,94.43,94.53,94.43,94.53,2814
308,94.38,94.43,94.37,94.43,4308
309,94.367,94.38,94.34,94.37,1750
310,94.35,94.39,94.35,94.37,3835
311,94.43,94.44,94.34,94.36,6728
312,94.4,94.47,94.39,94.421,3524
313,94.35,94.41,94.345,94.41,2806
314,94.3668,94.37,94.34,94.34,2726
315,94.3673,94.4,94.36,94.38,3531
316,94.4,94.4,94.37,94.37,2219
317,94.44,94.44,94.4,94.4,2000
318,94.36,94.39,94.36,94.39,2100
319,94.36,94.3799,94.35,94.35,600
320,94.31,94.35,94.29,94.35,4366
321,94.345,94.345,94.2903,94.2903,2214
322,94.34,94.38,94.34,94.357,3281
323,94.37,94.38,94.35,94.35,2395
324,94.36,94.37,94.35,94.36,3400
325,94.32,94.35,94.32,94.35,1392
326,94.3194,94.33,94.31,94.33,2375
327,94.39,94.4,94.31,94.31,3009
328,94.41,94.41,94.39,94.39,1609
329,94.385,94.41,94.385,94.405,3171
330,94.36,94.3869,94.36,94.38,2689
331,94.37,94.3831,94.36,94.36,3681
332,94.33,94.3804,94.33,94.3804,3988
333,94.33,94.34,94.3,94.32,4261
334,94.33,94.345,94.33,94.34,2481
335,94.36,94.36,94.33,94.34,4000
336,94.3525,94.37,94.33,94.37,4200
337,94.37,94.39,94.36,94.36,4211
338,94.405,94.42,94.38,94.38,4140
339,94.36,94.4185,94.36,94.405,3658
340,94.29,94.36,94.29,94.36,6863
341,94.31,94.32,94.29,94.3,4700
342,94.32,94.33,94.32,94.32,1614
343,94.339,94.3441,94.33,94.33,4838
344,94.35,94.35,94.325,94.325,1501
345,94.35,94.355,94.34,94.34,3300
346,94.25,94.355,94.25,94.35,5479
347,94.3,94.3,94.27,94.27,2650
348,94.32,94.335,94.3,94.3,4000
349,94.25,94.33,94.24,94.32,4600
350,94.23,94.25,94.23,94.2476,2678
351,94.17,94.25,94.16,94.25,4394
352,94.155,94.16,94.15,94.16,600
353,94.155,94.16,94.15,94.15,3300
354,94.15,94.16,94.14,94.155,6237
355,94.155,94.155,94.14,94.145,3500
356,94.16,94.175,94.145,94.15,14622
357,94.2328,94.2328,94.17,94.17,4552
358,94.27,94.28,94.24,94.24,3681
359,94.27,94.275,94.25,94.27,5700
360,94.285,94.29,94.27,94.27,1700
361,94.37,94.37,94.29,94.29,4985
362,94.36,94.425,94.36,94.39,11381
363,94.38,94.39,94.35,94.35,4175
364,94.4,94.4,94.37,94.38,7666
365,94.34,94.38,94.32,94.38,5808
366,94.33,94.355,94.33,94.35,4794
367,94.31,94.33,94.29,94.33,7094
368,94.3,94.32,94.3,94.3,6680
369,94.265,94.295,94.26,94.29,5423
370,94.24,94.29,94.24,94.27,7368
371,94.1,94.26,94.1,94.24,16219
372,94.12,94.14,94.11,94.12,8522
373,94.088,94.12,94.05,94.12,11776
374,94.179,94.19,94.09,94.1,5510
375,93.98,94.16,93.98,94.16,14948
376,93.94,93.99,93.93,93.99,9420
377,93.95,93.98,93.925,93.94,9590
378,93.925,93.95,93.92,93.95,6350
379,93.88,93.93,93.88,93.925,11106
380,93.77,93.88,93.77,93.88,6973
381,93.755,93.77,93.72,93.77,19053
382,93.72,93.76,93.72,93.74,13601
383,93.71,93.74,93.7,93.73,15401
384,93.75,93.76,93.7,93.71,22802
385,93.78,93.8,93.74,93.74,12876
386,93.74,93.78,93.73,93.78,28963
387,93.67,93.74,93.67,93.74,23726
388,93.605,93.68,93.59,93.67,32743
389,93.6,93.65,93.57,93.61,47372
390,93.68,93.69,93.58,93.605,62841
