PPG,PPG Industries,Materials,8,Specialty Chemicals,27498668858,1121501
a1500557400,109.59,109.59,109.59,109.59,100
1,109.46,109.46,109.05,109.05,310
3,106.43,106.47,106.43,106.46,1300
4,108.04,108.9,106.07,106.39,147802
5,107.68,108.8104,107.43,108.8104,47447
6,107.61,108.38,107.49,108.24,72174
7,107.49,107.79,107,107.61,17589
8,107.65,107.77,107.25,107.485,14243
9,107.46,107.72,107.27,107.53,25207
10,107.305,107.56,107.28,107.415,14600
11,107.41,107.5,107.3,107.49,44060
12,107.86,107.99,107.395,107.42,19243
13,107.7425,108.1,107.69,107.99,9228
14,108.0475,108.14,107.46,107.72,20641
15,108.37,108.47,107.95,108.0475,6760
16,108.02,108.3317,107.8,108.3317,13550
17,107.93,108.34,107.815,108.02,13819
18,108.1,108.1,107.8375,107.97,6400
19,108.03,108.04,107.8,108.035,56625
20,108,108.07,107.89,108.01,18763
21,107.84,108.01,107.53,108.01,46925
22,107.42,107.805,107.35,107.8,21272
23,107.34,107.48,107.3,107.46,67686
24,107.18,107.37,107.1,107.35,24402
25,107.28,107.3,107.11,107.1518,13765
26,107.22,107.29,107.12,107.28,8906
27,107.3547,107.48,107.22,107.22,5961
28,107.26,107.37,107.21,107.35,5500
29,107.36,107.41,107.245,107.245,10842
30,107.5,107.5,107.32,107.33,7900
31,107.355,107.5,107.31,107.5,10988
32,107.36,107.38,107.26,107.36,34884
33,107.235,107.36,107.22,107.31,17515
34,107.285,107.34,107.18,107.24,13593
35,107.185,107.33,107.1601,107.285,27299
36,107.28,107.28,107.18,107.21,20595
37,107.2,107.27,107.19,107.27,9013
38,107.2,107.28,107.18,107.2,16008
39,107.3,107.38,107.2,107.22,15478
40,107.265,107.315,107.22,107.315,15400
41,107.27,107.31,107.26,107.265,6030
42,107.39,107.51,107.31,107.31,21591
43,107.4,107.43,107.34,107.42,6801
44,107.38,107.39,107.36,107.39,5707
45,107.3,107.3779,107.25,107.36,12600
46,107.185,107.3,107.185,107.3,6318
47,107.22,107.22,107.15,107.18,10345
48,107.235,107.25,107.1601,107.22,7354
49,107.24,107.28,107.19,107.25,15108
50,107.25,107.25,107.21,107.21,4700
51,107.21,107.27,107.19,107.25,9400
52,107.24,107.25,107.18,107.2,10290
53,107.305,107.39,107.24,107.24,13850
54,107.29,107.33,107.28,107.305,1300
55,107.35,107.35,107.29,107.29,1800
56,107.22,107.35,107.21,107.35,22610
57,107.27,107.31,107.17,107.21,21056
58,107.26,107.33,107.24,107.29,4700
59,106.86,107.26,106.69,107.26,46834
60,106.84,107,106.78,106.93,11150
61,106.76,106.88,106.76,106.845,8457
62,106.73,106.81,106.69,106.76,14025
63,106.62,106.76,106.62,106.76,10947
64,106.52,106.66,106.49,106.6189,19230
65,106.52,106.6,106.44,106.52,22125
66,106.505,106.56,106.5039,106.54,7342
67,106.23,106.54,106.16,106.505,72174
68,106.35,106.455,106.19,106.24,7700
69,106.285,106.39,106.285,106.35,3223
70,106.315,106.33,106.26,106.31,8643
71,106.43,106.44,106.31,106.325,2500
72,106.575,106.575,106.37,106.405,2900
73,106.8,106.81,106.57,106.5896,9401
74,106.9,106.9,106.84,106.84,500
75,106.98,107.06,106.9,106.9,5692
76,106.95,107.03,106.91,107.0252,12647
77,106.97,106.97,106.92,106.94,1896
78,106.98,106.98,106.949,106.97,700
79,106.845,106.96,106.83,106.96,12174
80,106.85,106.88,106.81,106.845,9798
81,106.785,106.835,106.76,106.82,14307
82,106.77,106.785,106.73,106.785,11325
83,106.71,106.78,106.68,106.77,6476
84,106.74,106.74,106.7,106.71,3963
85,106.86,106.86,106.75,106.75,5900
86,106.86,106.94,106.82,106.93,11176
87,106.96,107,106.85,106.85,9106
88,107.04,107.05,106.95,107.01,13201
89,106.94,107.04,106.93,107.01,16345
90,106.93,106.93,106.89,106.89,1100
91,106.9,106.95,106.88,106.925,11218
92,106.775,106.895,106.77,106.8939,16050
93,106.79,106.79,106.77,106.78,4102
94,106.87,106.87,106.785,106.79,5713
95,107.03,107.05,106.895,106.898,3334
96,106.93,107.03,106.86,107.03,7805
97,106.97,107.09,106.93,106.93,9360
98,106.94,107,106.94,106.99,2500
99,106.98,106.98,106.93,106.95,15000
100,106.935,106.99,106.9,106.99,3700
101,106.95,106.95,106.9,106.925,1978
102,106.92,106.96,106.92,106.93,5200
103,106.915,106.95,106.89,106.94,15436
104,106.95,106.96,106.91,106.93,5100
105,107.02,107.02,106.97,106.97,1200
106,107.045,107.06,107.02,107.02,1300
107,107.06,107.07,107.05,107.06,2400
108,107.21,107.45,107.06,107.06,12007
109,107.02,107.18,107.02,107.18,13631
110,107.12,107.2,107.0241,107.07,9058
111,107.15,107.2,107.11,107.1226,5311
112,107.14,107.17,107.13,107.15,2300
113,107.39,107.4,107.164,107.165,17700
114,107.3,107.43,107.26,107.28,11000
115,107,107.28,106.97,107.25,9810
116,107.04,107.15,107,107,5340
117,107.11,107.12,107.04,107.04,2300
118,107.14,107.14,107.075,107.11,2200
119,107,107.14,106.98,107.14,6241
120,107.02,107.02,106.95,106.995,3496
121,106.8,107.01,106.8,107,12642
122,106.8368,106.85,106.82,106.82,3770
123,106.81,106.83,106.81,106.83,740
124,106.68,106.84,106.67,106.825,21533
125,106.8,106.81,106.67,106.69,21271
126,106.635,106.8,106.62,106.8,12060
127,106.745,106.81,106.55,106.63,16200
128,106.65,106.76,106.6,106.735,11985
129,106.69,106.69,106.607,106.607,1866
130,106.76,106.77,106.65,106.65,8126
131,106.77,106.77,106.72,106.77,971
132,106.76,106.77,106.745,106.76,1825
133,106.67,106.77,106.65,106.76,6980
134,106.6811,106.6811,106.67,106.67,340
135,106.77,106.77,106.67,106.67,6948
136,106.8,106.8,106.7,106.74,24100
137,106.945,106.97,106.76,106.76,5600
138,106.96,106.99,106.96,106.97,700
139,107,107.07,106.92,106.975,19236
140,107,107,106.98,107,568
141,107.03,107.03,106.975,106.975,17761
142,106.945,107.03,106.92,107.02,10799
143,106.97,106.97,106.9,106.97,5317
144,106.975,106.98,106.965,106.97,3022
145,107.04,107.08,106.98,106.98,29189
146,107.09,107.09,107.01,107.04,1841
147,107.005,107.07,106.99,107.045,11392
148,106.995,107.03,106.985,107.01,26137
149,107.07,107.07,106.98,106.98,16589
150,106.98,107.08,106.83,107.07,21766
151,106.87,107.02,106.82,106.99,17536
152,106.71,106.95,106.62,106.85,13835
153,106.788,106.9099,106.6801,106.71,16346
154,106.74,106.745,106.7,106.71,2345
155,106.78,106.8,106.7,106.745,6500
156,106.84,106.84,106.72,106.8,7569
157,106.9199,106.95,106.84,106.84,5825
158,106.965,107.005,106.95,106.95,4108
159,106.85,106.975,106.75,106.95,4852
160,106.875,106.89,106.815,106.86,7405
161,106.68,106.9,106.63,106.86,7774
162,106.67,106.73,106.67,106.675,3000
163,106.76,106.87,106.725,106.725,10020
164,106.79,106.8,106.7,106.71,2840
165,106.83,106.83,106.83,106.83,100
166,106.65,106.78,106.57,106.78,5976
167,106.72,106.72,106.67,106.68,1803
168,106.68,106.81,106.59,106.74,3400
169,106.79,106.79,106.7,106.7,1500
171,106.78,106.78,106.738,106.738,600
172,106.65,106.78,106.65,106.78,2200
173,106.54,106.66,106.48,106.6,12926
174,106.65,106.65,106.56,106.59,4987
175,106.605,106.67,106.59,106.66,7948
176,106.55,106.61,106.51,106.61,7520
177,106.67,106.7,106.545,106.545,7987
178,106.59,106.67,106.57,106.655,7064
179,106.665,106.68,106.58,106.58,6850
180,106.66,106.67,106.6,106.67,9971
181,106.595,106.66,106.585,106.63,6704
182,106.61,106.63,106.58,106.63,700
183,106.59,106.61,106.5,106.61,7300
184,106.63,106.63,106.57,106.58,2825
185,106.65,106.7,106.59,106.645,4378
186,106.69,106.71,106.69,106.71,400
187,106.69,106.69,106.69,106.69,200
188,106.71,106.71,106.63,106.69,3200
189,106.67,106.71,106.64,106.65,3800
191,106.63,106.71,106.6,106.71,3200
192,106.63,106.63,106.62,106.63,400
193,106.55,106.64,106.53,106.6364,90332
194,106.59,106.61,106.5498,106.55,4850
195,106.592,106.6056,106.59,106.59,648
196,106.58,106.59,106.5,106.57,5884
197,106.62,106.64,106.55,106.58,9600
198,106.69,106.72,106.63,106.64,6612
199,106.65,106.71,106.63,106.67,5132
200,106.635,106.675,106.58,106.65,4900
201,106.5699,106.65,106.555,106.65,5000
202,106.61,106.62,106.53,106.57,4394
203,106.59,106.62,106.58,106.61,2206
204,106.69,106.69,106.62,106.62,1900
205,106.52,106.709,106.51,106.675,8700
206,106.49,106.58,106.49,106.53,1682
207,106.49,106.55,106.45,106.54,5418
208,106.57,106.57,106.44,106.4508,5619
209,106.53,106.57,106.51,106.57,3242
210,106.58,106.58,106.52,106.52,2475
211,106.6,106.6,106.56,106.57,1000
212,106.61,106.61,106.58,106.5821,1200
213,106.5,106.61,106.5,106.61,8714
214,106.432,106.52,106.432,106.52,6162
215,106.485,106.49,106.44,106.45,3890
216,106.47,106.52,106.43,106.5,6037
217,106.46,106.49,106.42,106.49,6271
218,106.48,106.51,106.451,106.46,1500
219,106.5,106.51,106.47,106.49,8550
220,106.53,106.53,106.5,106.5,1900
221,106.53,106.56,106.53,106.5475,2041
222,106.59,106.63,106.56,106.56,2703
223,106.63,106.63,106.62,106.62,300
224,106.52,106.63,106.52,106.62,9374
226,106.56,106.56,106.56,106.56,100
227,106.52,106.54,106.485,106.54,8548
228,106.51,106.53,106.48,106.51,5724
229,106.51,106.52,106.51,106.51,500
230,106.52,106.52,106.51,106.51,900
231,106.58,106.58,106.5,106.52,8972
232,106.56,106.61,106.55,106.58,9714
233,106.51,106.555,106.45,106.55,8513
234,106.5198,106.53,106.5,106.515,585
235,106.5,106.51,106.5,106.51,200
236,106.54,106.579,106.48,106.5,18363
237,106.51,106.53,106.49,106.52,3485
238,106.47,106.5,106.4311,106.49,7625
239,106.35,106.465,106.35,106.465,6585
240,106.23,106.33,106.22,106.31,6899
241,106.18,106.25,106.16,106.225,4125
242,106.23,106.23,106.185,106.2,6126
243,106.27,106.28,106.2261,106.2261,3200
244,106.25,106.29,106.2001,106.28,6106
245,106.21,106.23,106.21,106.23,300
246,106.03,106.21,106,106.21,8396
247,105.97,106.01,105.9101,106,7825
248,105.9,105.98,105.86,105.97,7625
249,105.875,105.88,105.83,105.86,4849
250,105.945,105.96,105.89,105.89,2800
251,105.92,105.93,105.87,105.93,2608
252,105.9,105.91,105.9,105.91,1000
253,105.96,105.96,105.9299,105.9299,1110
254,105.98,106.01,105.92,105.97,2950
255,105.9,105.95,105.89,105.95,2445
256,106.0295,106.0295,105.875,105.875,4900
257,106.02,106.04,105.96,106.04,3542
258,106.105,106.11,106.04,106.04,2300
259,106.08,106.12,106.04,106.12,5545
260,106.17,106.17,106.08,106.11,2200
261,106.28,106.28,106.18,106.18,3599
262,106.28,106.3,106.24,106.29,2400
263,106.22,106.25,106.22,106.25,3500
264,106.13,106.22,106.13,106.21,1300
265,106.15,106.19,106.1,106.14,3952
266,106.17,106.18,106.15,106.17,3500
267,106.17,106.2,106.17,106.2,200
268,106.09,106.2,106.09,106.2,5300
269,106.03,106.14,105.99,106.09,6525
270,105.93,106.03,105.84,106.01,6500
271,106.09,106.1,105.93,105.93,4268
272,106.11,106.11,106.05,106.06,4050
273,106.17,106.17,106.11,106.11,2000
274,106.24,106.24,106.165,106.17,9125
275,106.26,106.26,106.21,106.21,1200
276,106.21,106.28,106.2,106.28,3000
277,106.2,106.25,106.16,106.25,2419
278,106.19,106.19,106.19,106.19,200
279,106.22,106.225,106.18,106.21,3300
280,106.23,106.23,106.185,106.2,3708
281,106.3,106.3,106.23,106.23,19800
282,106.31,106.32,106.3,106.3,500
283,106.33,106.34,106.29,106.32,6340
284,106.44,106.45,106.34,106.34,4300
285,106.39,106.44,106.39,106.44,5037
286,106.35,106.42,106.35,106.41,3666
287,106.34,106.37,106.3,106.34,9902
288,106.31,106.34,106.31,106.32,1817
289,106.39,106.43,106.325,106.325,47954
290,106.45,106.45,106.39,106.39,2900
291,106.56,106.56,106.4231,106.4231,9919
292,106.61,106.61,106.56,106.56,5202
293,106.7,106.73,106.61,106.61,20464
294,106.74,106.75,106.71,106.71,3200
295,106.97,106.98,106.73,106.74,14452
296,107.105,107.13,106.91,106.91,20262
297,107.135,107.21,107.06,107.08,20863
298,107.17,107.27,107.12,107.125,15277
299,107.28,107.29,107.14,107.16,14521
300,107.36,107.55,107.25,107.25,48893
301,107.34,107.5,107.34,107.34,16045
302,107.44,107.51,107.32,107.34,85846
303,107.31,107.52,107.31,107.48,9716
304,106.93,107.53,106.88,107.28,33156
305,106.99,107.0219,106.95,107.0219,2145
306,107.045,107.07,107.02,107.03,4163
307,106.93,107.12,106.91,107.07,9377
308,106.9,107,106.9,106.95,1650
309,106.84,106.915,106.8,106.915,10531
310,106.94,106.94,106.85,106.8515,4889
311,107.085,107.15,106.94,106.94,13018
312,107.12,107.16,107.08,107.08,4500
313,107.08,107.12,107.01,107.113,7325
314,107.255,107.28,107.09,107.09,15600
315,107.23,107.28,107.18,107.255,5800
316,107.21,107.239,107.16,107.19,5510
317,107.14,107.22,107.05,107.22,10258
318,107.09,107.12,107.09,107.12,200
319,107.05,107.13,107.02,107.11,9140
320,107.17,107.17,107.09,107.09,2109
321,107.08,107.18,107.08,107.18,4200
322,107.18,107.18,107.1015,107.12,2200
323,107.2,107.31,107.18,107.18,25423
324,107.02,107.2,107.02,107.2,49300
325,106.96,107.04,106.95,107.04,4251
326,106.66,106.95,106.56,106.95,5743
327,106.815,106.815,106.72,106.72,1800
328,106.9,106.9,106.83,106.83,2400
329,106.915,106.92,106.906,106.92,1006
330,107.02,107.05,106.9,106.91,18155
331,107.02,107.11,107.0001,107.03,16232
332,106.93,107.04,106.92,107.0167,8219
333,107.05,107.05,106.92,106.93,9176
334,107.045,107.18,106.985,107.045,16361
335,107.08,107.09,107.0429,107.05,3800
336,107.03,107.08,106.99,107.07,6244
337,107.07,107.12,107,107.035,9792
338,107.11,107.14,107.07,107.07,11588
339,106.98,107.12,106.975,107.11,8500
340,107.01,107.02,107,107.0064,4191
341,107.02,107.04,107,107.01,2800
342,107.075,107.09,107.06,107.08,9408
343,107.17,107.17,107.08,107.08,8700
344,107.23,107.29,107.125,107.17,15735
345,107.21,107.29,107.21,107.24,11137
346,107.19,107.28,107.16,107.185,8408
347,107.22,107.22,107.2,107.2,4040
348,107.17,107.23,107.16,107.2229,9103
349,107.15,107.175,107.15,107.15,2200
350,107.14,107.18,107.14,107.175,3302
351,107.07,107.17,107.07,107.14,7150
352,107.09,107.12,107.08,107.08,2205
353,107.01,107.11,107.01,107.109,5375
354,107.03,107.04,107.01,107.03,2000
355,107,107.03,107,107.03,2099
356,107.08,107.08,107.01,107.02,10473
357,107.13,107.13,107.075,107.09,5227
358,107.19,107.19,107.135,107.14,9868
359,107.265,107.28,107.19,107.19,15257
360,107.29,107.29,107.26,107.27,2700
361,107.17,107.29,107.15,107.27,10629
362,107.06,107.16,107.06,107.155,8134
363,107.075,107.09,107.06,107.065,3884
364,107.07,107.075,107.06,107.075,600
365,107.06,107.07,107.02,107.06,9600
366,107.08,107.08,107.055,107.06,3900
367,107.01,107.08,107.01,107.08,6863
368,107.015,107.03,107,107.025,1550
369,106.86,107.015,106.85,107.01,54998
370,106.84,106.875,106.83,106.86,10150
371,106.79,106.84,106.78,106.84,10063
372,106.76,106.81,106.75,106.78,14513
373,106.815,106.82,106.77,106.77,8796
374,106.73,106.85,106.73,106.81,27879
375,106.8,106.81,106.73,106.75,9695
376,106.58,106.8,106.55,106.79,27068
377,106.54,106.61,106.54,106.58,19249
378,106.58,106.6,106.54,106.54,9407
379,106.59,106.59,106.5352,106.59,20127
380,106.58,106.63,106.54,106.59,14216
381,106.6,106.605,106.56,106.58,18559
382,106.62,106.63,106.57,106.6,17635
383,106.57,106.63,106.55,106.62,13214
384,106.54,106.59,106.53,106.57,15891
385,106.49,106.54,106.48,106.53,37900
386,106.48,106.54,106.48,106.5,31811
387,106.515,106.515,106.48,106.48,17355
388,106.67,106.68,106.52,106.52,29948
389,106.66,106.71,106.64,106.68,44928
390,106.74,106.74,106.5801,106.66,74419
