EOG,EOG Resources,Energy,3,Oil & Gas Exploration & Production,48863662008,3266912
a1503581400,84.78,84.8,84.78,84.8,20958
1,84.54,84.668,84.54,84.668,2551
2,84.38,84.42,84.36,84.42,4228
3,84.47,84.51,84.37,84.39,1800
4,84.62,84.62,84.47,84.47,4000
5,84.65,84.65,84.53,84.6,7044
6,84.63,84.66,84.6,84.64,3300
7,84.59,84.61,84.47,84.61,3000
8,84.56,84.56,84.56,84.56,100
9,84.78,84.81,84.65,84.65,3600
10,84.795,84.799,84.74,84.78,1464
11,84.72,84.84,84.72,84.79,4300
12,84.71,84.79,84.68,84.7767,3750
13,84.71,84.73,84.69,84.69,536
14,84.64,84.7177,84.63,84.68,2430
15,84.58,84.68,84.58,84.68,984
16,84.56,84.58,84.53,84.56,800
17,84.59,84.67,84.56,84.56,4787
18,84.52,84.58,84.52,84.58,1600
19,84.48,84.5,84.47,84.49,1315
20,84.49,84.53,84.48,84.48,793
21,84.51,84.51,84.46,84.5,1950
22,84.54,84.54,84.52,84.52,2400
23,84.4799,84.52,84.44,84.52,6487
24,84.45,84.53,84.45,84.51,2036
25,84.4,84.44,84.39,84.44,2490
26,84.43,84.45,84.425,84.44,3300
27,84.425,84.455,84.39,84.44,2522
28,84.47,84.47,84.39,84.43,12885
29,84.43,84.479,84.39,84.47,4425
30,84.51,84.56,84.46,84.48,5343
31,84.44,84.56,84.44,84.56,5708
32,84.43,84.45,84.33,84.45,14751
33,84.59,84.59,84.44,84.44,3554
34,84.66,84.66,84.57,84.59,6501
35,84.76,84.83,84.62,84.62,3000
36,84.7763,84.82,84.7375,84.79,3337
37,84.73,84.785,84.73,84.77,2800
38,84.8,84.82,84.78,84.78,2313
39,84.76,84.87,84.73,84.83,2400
40,84.7148,84.75,84.7,84.74,3147
41,84.76,84.76,84.74,84.74,200
42,84.81,84.9,84.8,84.81,1600
43,84.76,84.8,84.76,84.8,1300
44,84.78,84.78,84.73,84.76,1500
45,84.85,84.86,84.82,84.82,1400
46,84.81,84.81,84.81,84.81,400
47,84.92,84.92,84.84,84.84,1700
48,84.88,84.89,84.88,84.89,471
49,84.88,84.91,84.8263,84.89,3700
50,84.83,84.86,84.83,84.86,1459
51,84.83,84.84,84.83,84.83,828
52,84.76,84.83,84.76,84.82,2614
53,84.75,84.77,84.73,84.77,1300
54,84.76,84.78,84.73,84.78,1635
55,84.71,84.76,84.71,84.76,1400
56,84.7,84.71,84.69,84.71,1200
57,84.72,84.72,84.6399,84.69,6862
58,84.84,84.84,84.715,84.715,5800
59,84.86,84.9,84.8462,84.8462,4011
60,84.88,84.91,84.84,84.865,1593
61,85.01,85.1,84.92,84.92,10829
62,85.09,85.115,85.04,85.04,4385
63,85.1016,85.1016,85.05,85.09,4627
64,85.06,85.12,85.05,85.08,4483
65,85.06,85.11,85.06,85.07,2840
66,85.07,85.07,84.99,85.06,4057
67,85.14,85.14,85.08,85.08,1500
68,85.1,85.1,85.03,85.1,5269
69,85.01,85.08,85.01,85.08,2203
70,85.0522,85.06,85.03,85.03,1100
71,85.03,85.06,85,85.06,2128
72,84.95,85.02,84.95,85.02,3400
73,84.96,84.97,84.93,84.9431,2148
74,84.96,84.98,84.95,84.96,1600
75,84.96,85,84.96,84.97,4095
76,84.911,84.97,84.91,84.97,2000
77,84.92,84.92,84.89,84.91,1100
78,84.87,84.89,84.86,84.89,1055
79,84.82,84.87,84.82,84.86,1000
80,84.79,84.81,84.76,84.81,1120
81,84.78,84.82,84.78,84.79,1400
82,84.77,84.81,84.77,84.78,1800
83,84.81,84.82,84.76,84.76,3225
84,84.82,84.82,84.79,84.81,3300
85,84.82,84.84,84.82,84.84,400
86,84.85,84.86,84.8,84.81,4086
87,84.83,84.8936,84.83,84.86,1400
88,84.89,84.89,84.86,84.86,700
89,84.9499,84.95,84.9,84.9,6932
90,84.96,85,84.95,84.95,2589
91,84.91,84.95,84.91,84.95,700
92,84.83,84.91,84.83,84.9,1350
93,84.87,84.87,84.82,84.82,1000
95,84.81,84.87,84.81,84.87,1300
96,84.84,84.84,84.8,84.836,1700
97,84.84,84.86,84.83,84.84,1300
98,84.87,84.87,84.81,84.82,1414
100,84.79,84.81,84.79,84.81,2200
101,84.73,84.78,84.73,84.77,2200
102,84.73,84.75,84.73,84.74,2550
103,84.74,84.74,84.72,84.73,1100
104,84.74,84.76,84.73,84.7476,1150
105,84.69,84.77,84.69,84.74,1800
106,84.67,84.7,84.66,84.66,2403
107,84.63,84.66,84.6,84.65,5245
108,84.755,84.76,84.64,84.64,6100
109,84.73,84.73,84.7,84.72,1500
110,84.82,84.82,84.74,84.74,1000
111,84.79,84.83,84.78,84.82,2372
112,84.84,84.84,84.82,84.82,650
113,84.82,84.82,84.82,84.82,400
114,84.85,84.88,84.8,84.8,2683
115,84.91,84.91,84.84,84.84,900
116,84.8893,84.8893,84.81,84.86,3661
117,84.8613,84.87,84.85,84.85,822
118,84.83,84.87,84.83,84.85,3058
119,84.86,84.88,84.81,84.82,2550
120,84.83,84.89,84.83,84.86,3040
121,84.79,84.82,84.76,84.82,3303
122,84.78,84.81,84.76,84.81,2450
123,84.76,84.78,84.75,84.78,1500
124,84.755,84.84,84.72,84.78,3200
125,84.7,84.75,84.66,84.75,3570
126,84.68,84.71,84.64,84.71,4949
127,84.6,84.69,84.58,84.69,3430
128,84.57,84.64,84.57,84.61,3892
129,84.62,84.62,84.53,84.55,2099
130,84.58,84.65,84.51,84.63,4850
131,84.55,84.55,84.46,84.54,3374
132,84.49,84.49,84.44,84.49,1221
133,84.48,84.48,84.45,84.48,510
134,84.532,84.54,84.49,84.49,2315
135,84.5218,84.5218,84.5218,84.5218,176
136,84.57,84.57,84.51,84.53,5650
137,84.63,84.63,84.57,84.59,1300
138,84.59,84.62,84.59,84.62,1068
139,84.63,84.63,84.59,84.62,1000
140,84.61,84.62,84.57,84.62,4896
141,84.67,84.7,84.61,84.62,4460
142,84.65,84.6771,84.63,84.6771,981
143,84.62,84.63,84.61,84.63,990
144,84.6,84.62,84.59,84.62,1600
145,84.65,84.66,84.63,84.63,1400
146,84.64,84.66,84.61,84.66,6209
147,84.63,84.6562,84.6205,84.64,10060
148,84.59,84.62,84.59,84.62,1851
149,84.63,84.63,84.57,84.57,3450
150,84.68,84.7,84.64,84.64,2950
151,84.71,84.71,84.68,84.69,1900
152,84.68,84.7,84.68,84.7,732
153,84.61,84.66,84.61,84.66,3843
154,84.67,84.67,84.62,84.62,3300
155,84.6208,84.66,84.6201,84.66,1347
156,84.64,84.67,84.635,84.64,1600
157,84.65,84.66,84.64,84.64,700
158,84.63,84.63,84.63,84.63,700
159,84.6101,84.62,84.61,84.62,1000
160,84.62,84.63,84.61,84.63,900
161,84.64,84.66,84.63,84.63,1600
162,84.69,84.69,84.66,84.66,400
163,84.7,84.7,84.7,84.7,700
164,84.695,84.7099,84.695,84.7099,250
165,84.71,84.71,84.69,84.7,1450
166,84.7,84.71,84.7,84.71,1600
167,84.66,84.7,84.66,84.7,1400
168,84.67,84.67,84.65,84.65,200
169,84.705,84.71,84.68,84.68,2500
170,84.78,84.78,84.71,84.71,2100
171,84.8,84.81,84.77,84.8,1500
172,84.85,84.85,84.77,84.8,2017
173,84.85,84.85,84.85,84.85,200
174,84.83,84.83,84.83,84.83,699
175,84.87,84.88,84.79,84.82,3090
176,84.92,84.95,84.87,84.87,2570
177,84.93,84.95,84.91,84.93,2523
178,84.94,84.94,84.91,84.92,1826
179,84.99,85.01,84.96,84.96,2457
180,85,85,84.944,85,3032
181,84.97,85.01,84.97,85.01,900
182,85.01,85.01,85,85,800
183,84.97,85.05,84.97,85.02,2000
184,84.955,84.97,84.94,84.97,400
185,84.88,84.94,84.88,84.94,1400
186,84.84,84.88,84.84,84.87,900
187,84.79,84.83,84.79,84.82,1000
188,84.87,84.87,84.8,84.8,1900
189,84.87,84.87,84.87,84.87,100
190,84.88,84.88,84.86,84.86,1400
191,84.88,84.92,84.88,84.89,969
192,84.87,84.87,84.85,84.86,700
193,84.92,84.92,84.88,84.88,1000
194,84.98,84.98,84.96,84.96,814
195,84.97,84.97,84.96,84.96,700
196,84.985,84.99,84.97,84.98,800
197,85.07,85.07,84.95,84.97,3100
198,85.0627,85.11,85.05,85.09,3900
199,85.065,85.1,85.065,85.07,3000
200,85.0199,85.06,85.01,85.06,1385
201,85,85.02,85,85,1297
202,84.975,84.99,84.97,84.99,600
203,85.02,85.02,84.97,84.97,2800
204,85.05,85.07,85.04,85.07,11180
205,84.993,85.04,84.993,85.04,797
206,84.995,85.0098,84.995,85.0098,250
207,84.985,85.03,84.98,84.99,13268
208,84.945,84.9727,84.93,84.96,15463
209,84.93,84.97,84.92,84.96,2000
210,84.93,84.93,84.92,84.92,200
211,84.85,84.95,84.83,84.91,17650
212,84.84,84.86,84.82,84.85,14622
213,84.85,84.85,84.84,84.85,6920
214,84.82,84.84,84.82,84.84,1525
215,84.78,84.81,84.78,84.81,1459
216,84.79,84.82,84.77,84.78,2595
217,84.75,84.79,84.75,84.79,1550
218,84.76,84.78,84.76,84.77,1025
219,84.72,84.77,84.72,84.76,800
220,84.72,84.74,84.71,84.72,1985
221,84.7,84.75,84.7,84.73,2618
222,84.7,84.7199,84.7,84.71,315
223,84.71,84.71,84.68,84.68,2435
224,84.79,84.79,84.72,84.72,3963
226,84.79,84.81,84.79,84.79,2500
227,84.84,84.85,84.79,84.8,8629
228,84.85,84.85,84.84,84.85,2050
229,84.84,84.85,84.81,84.84,2600
230,84.81,84.835,84.81,84.835,1027
231,84.81,84.81,84.78,84.81,3036
232,84.62,84.82,84.6,84.82,39006
233,84.66,84.67,84.59,84.59,5582
234,84.585,84.66,84.58,84.65,4112
235,84.59,84.6,84.59,84.59,1100
236,84.59,84.6,84.58,84.6,1500
237,84.63,84.63,84.6,84.6,3900
238,84.59,84.61,84.59,84.61,711
239,84.53,84.6,84.53,84.59,2018
240,84.53,84.55,84.53,84.55,900
241,84.5301,84.55,84.53,84.53,3308
242,84.515,84.54,84.51,84.54,1200
243,84.57,84.57,84.5096,84.5096,1926
245,84.58,84.58,84.5725,84.5725,950
246,84.56,84.5869,84.55,84.5869,2151
247,84.566,84.57,84.56,84.56,782
248,84.59,84.59,84.58,84.58,1700
249,84.62,84.62,84.58,84.59,3800
250,84.63,84.64,84.62,84.62,1600
251,84.72,84.72,84.63,84.64,35563
252,84.78,84.79,84.71,84.71,9949
253,84.78,84.78,84.74,84.77,5907
254,84.79,84.79,84.78,84.78,1000
255,84.8,84.8499,84.79,84.81,6099
256,84.82,84.82,84.8,84.81,649
257,84.82,84.82,84.82,84.82,100
258,84.9,84.91,84.8,84.8,6146
259,84.87,84.9,84.87,84.9,3500
260,84.83,84.91,84.82,84.9,9039
261,84.86,84.86,84.7,84.85,27511
262,84.89,84.91,84.87,84.89,4340
263,84.84,84.88,84.82,84.88,1952
264,84.9,84.9,84.86,84.86,2156
265,84.91,84.93,84.91,84.91,2153
266,84.83,84.88,84.82,84.88,784
267,84.85,84.85,84.765,84.79,3100
269,84.82,84.86,84.8186,84.8368,3476
270,84.77,84.81,84.77,84.81,978
271,84.75,84.79,84.75,84.77,1800
272,84.78,84.78,84.76,84.76,1300
273,84.77,84.79,84.77,84.79,1200
274,84.79,84.82,84.78,84.78,2350
275,84.74,84.77,84.74,84.77,800
276,84.71,84.76,84.71,84.74,2486
277,84.72,84.74,84.68,84.7,1800
278,84.72,84.73,84.72,84.73,1054
279,84.68,84.75,84.68,84.73,800
280,84.66,84.7,84.66,84.7,3058
281,84.66,84.67,84.65,84.67,2075
282,84.66,84.6879,84.66,84.67,993
283,84.66,84.72,84.66,84.69,9837
284,84.68,84.68,84.66,84.6768,1989
285,84.72,84.72,84.69,84.69,1800
286,84.6976,84.72,84.69,84.69,2000
287,84.72,84.73,84.71,84.71,2290
288,84.68,84.73,84.67,84.73,2302
289,84.66,84.68,84.66,84.67,1316
290,84.73,84.73,84.67,84.67,3800
291,84.7,84.74,84.7,84.74,1000
293,84.7,84.7,84.67,84.68,2986
294,84.67,84.7,84.67,84.7,1100
295,84.63,84.67,84.62,84.67,1824
296,84.59,84.63,84.59,84.63,1500
297,84.6,84.6,84.59,84.59,1902
298,84.61,84.64,84.61,84.61,4418
299,84.66,84.67,84.61,84.61,3031
300,84.72,84.75,84.7,84.71,2000
301,84.67,84.72,84.67,84.71,1878
302,84.69,84.69,84.69,84.69,100
303,84.71,84.71,84.66,84.67,2300
304,84.69,84.73,84.69,84.71,1280
305,84.69,84.69,84.68,84.68,875
306,84.74,84.74,84.69,84.7,2300
307,84.75,84.76,84.74,84.74,1300
308,84.72,84.76,84.71,84.76,2175
309,84.79,84.79,84.72,84.72,2002
310,84.71,84.8,84.7,84.78,2846
311,84.72,84.72,84.7,84.7199,954
313,84.7,84.74,84.7,84.725,2567
314,84.68,84.72,84.68,84.68,2837
315,84.7,84.7,84.673,84.673,691
316,84.73,84.74,84.71,84.71,2141
317,84.7,84.71,84.68,84.71,3700
318,84.69,84.7,84.69,84.7,715
319,84.67,84.71,84.66,84.71,1600
320,84.65,84.68,84.64,84.68,700
321,84.65,84.66,84.65,84.65,2050
322,84.67,84.67,84.66,84.66,2150
323,84.68,84.69,84.66,84.66,1500
324,84.72,84.76,84.68,84.69,6526
325,84.7,84.72,84.6835,84.72,1342
326,84.71,84.71,84.7,84.7,1400
327,84.69,84.71,84.68,84.71,1400
328,84.67,84.69,84.6676,84.69,2311
329,84.69,84.71,84.68,84.68,2414
330,84.7,84.71,84.7,84.7,1363
331,84.67,84.71,84.67,84.7,1795
332,84.66,84.66,84.65,84.66,1550
333,84.69,84.69,84.64,84.66,4474
334,84.72,84.72,84.68,84.68,2944
335,84.6732,84.72,84.6732,84.72,3545
336,84.66,84.68,84.65,84.68,2286
337,84.74,84.74,84.68,84.68,2500
338,84.69,84.72,84.6864,84.72,2159
339,84.7,84.72,84.675,84.7,4761
340,84.69,84.73,84.69,84.7042,2100
341,84.67,84.68,84.67,84.68,700
342,84.635,84.67,84.635,84.67,1616
343,84.7,84.73,84.65,84.65,5878
344,84.68,84.71,84.68,84.7099,1812
345,84.67,84.69,84.67,84.68,3000
346,84.71,84.71,84.65,84.67,7152
347,84.67,84.69,84.66,84.69,3300
348,84.625,84.67,84.62,84.67,2426
349,84.62,84.63,84.62,84.63,1901
350,84.62,84.63,84.62,84.62,3044
351,84.63,84.64,84.6,84.61,4842
352,84.67,84.76,84.645,84.65,6611
353,84.72,84.72,84.68,84.68,2198
354,84.67,84.73,84.67,84.72,2350
355,84.7128,84.74,84.69,84.69,3260
356,84.725,84.73,84.685,84.72,4605
357,84.73,84.74,84.71,84.73,1600
358,84.69,84.71,84.69,84.71,2152
359,84.7,84.71,84.695,84.7,2040
360,84.68,84.69,84.67,84.69,3052
361,84.74,84.76,84.67,84.68,17758
362,84.69,84.72,84.68,84.71,2592
363,84.68,84.71,84.67,84.69,4670
364,84.685,84.69,84.685,84.69,1413
365,84.665,84.685,84.655,84.685,5990
366,84.62,84.66,84.62,84.66,1800
367,84.625,84.64,84.62,84.6252,4236
368,84.63,84.63,84.62,84.63,2906
369,84.63,84.64,84.62,84.63,2789
370,84.67,84.67,84.62,84.63,6226
371,84.66,84.68,84.65,84.68,4100
372,84.655,84.68,84.65,84.67,1500
373,84.74,84.74,84.65,84.65,7291
374,84.69,84.75,84.69,84.75,6279
375,84.69,84.71,84.67,84.695,9684
376,84.72,84.74,84.69,84.69,6850
377,84.68,84.71,84.67,84.71,6849
378,84.7,84.7199,84.677,84.68,4670
379,84.69,84.7,84.68,84.7,4970
380,84.66,84.7,84.66,84.67,6849
381,84.68,84.69,84.66,84.67,4100
382,84.67,84.68,84.665,84.68,6363
383,84.67,84.68,84.66,84.665,3881
384,84.68,84.68,84.65,84.68,10685
385,84.69,84.715,84.68,84.69,13917
386,84.68,84.7,84.67,84.69,14444
387,84.69,84.705,84.68,84.69,15401
388,84.73,84.73,84.68,84.68,14873
389,84.725,84.73,84.69,84.725,17187
390,84.67,84.76,84.63,84.74,95621
