PPG,PPG Industries,Materials,8,Specialty Chemicals,26599518164,1569275
a1503581400,103.91,103.91,103.91,103.91,6462
2,103.9,103.9,103.88,103.89,900
3,103.97,103.97,103.89,103.89,300
4,103.97,103.99,103.97,103.98,700
6,103.93,103.96,103.93,103.9401,784
7,104.01,104.02,103.99,103.99,400
8,103.86,104,103.86,104,1500
9,103.89,103.91,103.89,103.91,900
13,104.08,104.105,104.03,104.03,2000
14,103.96,104.05,103.96,104.05,1897
16,103.95,104.02,103.8641,103.8641,1290
17,104,104.02,104,104.02,1100
18,104.0164,104.04,104,104,464
19,104.055,104.09,104.055,104.09,200
20,104.0479,104.07,104.0101,104.05,835
21,103.943,104.02,103.93,104.02,4255
22,103.98,104.01,103.98,103.98,992
23,103.95,103.99,103.93,103.99,1338
24,103.95,103.95,103.95,103.95,100
25,103.8501,103.93,103.82,103.93,2904
28,103.935,103.935,103.935,103.935,400
29,103.86,103.94,103.86,103.94,15110
30,103.76,103.83,103.75,103.83,1780
31,103.68,103.79,103.6,103.77,1200
32,103.82,103.82,103.76,103.76,762
33,103.95,103.95,103.8,103.82,2312
34,103.9,103.98,103.85,103.93,800
35,104.01,104.01,103.9133,103.9133,1488
36,104.01,104.01,104.01,104.01,100
37,104,104,104,104,100
38,104.01,104.01,103.95,104,3516
39,103.95,104.0397,103.95,104.02,3766
40,103.94,103.94,103.815,103.815,300
41,103.9,103.9,103.9,103.9,100
42,103.92,103.92,103.92,103.92,100
45,104.03,104.04,103.97,103.97,1929
47,104.13,104.14,104.03,104.03,1657
48,104.15,104.15,104.131,104.131,598
49,104.1354,104.1354,104.1354,104.1354,100
51,104.19,104.2,104.19,104.2,800
53,104.26,104.275,104.2,104.2,2849
55,104.48,104.48,104.24,104.24,3500
56,104.38,104.57,104.38,104.43,5652
57,104.36,104.36,104.36,104.36,100
58,104.42,104.42,104.41,104.41,600
60,104.42,104.47,104.42,104.46,2900
61,104.44,104.48,104.42,104.4662,2463
62,104.425,104.45,104.425,104.45,700
63,104.2,104.4,104.19,104.4,2762
65,104.21,104.25,104.17,104.2,2524
67,104.29,104.29,104.25,104.25,400
68,104.26,104.31,104.26,104.31,1151
71,104.2705,104.2705,104.2705,104.2705,300
72,104.17,104.27,104.17,104.27,3062
73,104.21,104.24,104.15,104.15,1700
75,104.31,104.31,104.1937,104.1937,1468
76,104.32,104.33,104.32,104.33,200
77,104.335,104.335,104.31,104.31,561
78,104.23,104.33,104.23,104.32,1700
79,104.24,104.24,104.23,104.23,500
80,104.265,104.29,104.24,104.24,1000
81,104.24,104.2675,104.24,104.2675,300
83,104.17,104.24,104.17,104.24,1747
84,104.16,104.17,104.16,104.17,500
86,104.32,104.32,104.1557,104.1557,1866
88,104.27,104.32,104.26,104.32,1100
89,104.26,104.27,104.26,104.27,394
90,104.3,104.3,104.29,104.29,200
91,104.32,104.32,104.32,104.32,500
92,104.31,104.32,104.27,104.31,6584
93,104.325,104.35,104.31,104.31,4140
95,104.32,104.33,104.29,104.32,882
96,104.29,104.3,104.29,104.3,600
97,104.26,104.3,104.26,104.29,900
98,104.24,104.28,104.24,104.26,400
100,104.21,104.21,104.21,104.21,100
101,104.21,104.21,104.21,104.21,100
102,104.27,104.3,104.22,104.25,2439
103,104.18,104.25,104.18,104.25,2385
104,104.2,104.2,104.2,104.2,500
105,104.19,104.26,104.19,104.22,1700
106,104.115,104.19,104.115,104.19,807
107,104.13,104.13,104.09,104.1,1400
108,104.13,104.15,104.13,104.15,200
109,104.16,104.16,104.13,104.13,860
110,104.18,104.2199,104.18,104.18,2000
111,104.1,104.16,104.06,104.16,5300
112,104.05,104.07,104.05,104.07,490
114,104.13,104.13,104.06,104.08,1000
115,104.15,104.15,104.15,104.15,125
116,104.08,104.12,104.08,104.12,1525
118,104.09,104.16,104.09,104.12,3725
119,104.06,104.06,104.06,104.06,100
120,104.18,104.18,104.12,104.12,500
121,104.13,104.15,104.13,104.15,301
123,104.22,104.22,104.1475,104.17,900
124,104.17,104.19,104.17,104.19,500
125,104.15,104.175,104.15,104.175,1163
126,104.16,104.16,104.15,104.16,300
127,104.19,104.19,104.19,104.19,400
128,104.19,104.19,104.17,104.19,1000
129,104.2,104.2,104.17,104.1701,927
130,104.17,104.21,104.17,104.21,800
132,104.24,104.24,104.1975,104.22,1000
133,104.24,104.25,104.22,104.24,2143
134,104.2994,104.2994,104.27,104.28,600
135,104.2899,104.2999,104.28,104.2999,1379
136,104.2631,104.28,104.2631,104.28,400
137,104.3,104.3,104.28,104.28,1600
138,104.23,104.3,104.23,104.3,1465
139,104.22,104.24,104.22,104.24,600
141,104.25,104.25,104.25,104.25,300
143,104.28,104.28,104.25,104.25,700
144,104.28,104.28,104.28,104.28,200
145,104.255,104.28,104.25,104.28,1326
146,104.23,104.23,104.23,104.23,100
147,104.22,104.25,104.22,104.25,500
148,104.27,104.27,104.25,104.25,1302
149,104.28,104.28,104.28,104.28,100
150,104.34,104.345,104.3,104.32,6100
151,104.35,104.37,104.35,104.36,701
152,104.35,104.35,104.35,104.35,100
153,104.35,104.3899,104.35,104.3599,1529
155,104.31,104.32,104.31,104.32,500
156,104.305,104.33,104.305,104.33,500
157,104.31,104.31,104.28,104.28,1000
158,104.28,104.31,104.28,104.31,755
159,104.27,104.27,104.27,104.27,100
161,104.29,104.295,104.29,104.295,200
162,104.31,104.31,104.3,104.31,400
163,104.31,104.3399,104.31,104.32,2701
164,104.2801,104.3,104.2801,104.3,360
166,104.27,104.28,104.27,104.28,834
167,104.23,104.23,104.23,104.23,200
169,104.207,104.21,104.207,104.21,700
171,104.22,104.226,104.22,104.226,225
172,104.1535,104.21,104.13,104.21,1616
174,104.18,104.18,104.15,104.15,760
175,104.17,104.18,104.17,104.18,500
176,104.235,104.235,104.19,104.19,1201
177,104.21,104.23,104.21,104.23,549
179,104.23,104.2394,104.23,104.2394,202
180,104.22,104.22,104.21,104.22,600
181,104.25,104.25,104.225,104.24,500
182,104.26,104.26,104.26,104.26,200
183,104.25,104.3,104.24,104.26,1600
184,104.24,104.24,104.24,104.24,100
185,104.24,104.28,104.24,104.28,500
187,104.17,104.22,104.17,104.22,1100
188,104.22,104.22,104.165,104.18,626
189,104.2048,104.21,104.2,104.21,895
192,104.25,104.25,104.21,104.21,700
193,104.2249,104.27,104.22,104.27,1940
194,104.2349,104.27,104.2349,104.27,370
197,104.2,104.2488,104.17,104.245,2225
198,104.19,104.2299,104.19,104.21,900
199,104.2,104.2,104.18,104.1801,1600
200,104.22,104.22,104.2,104.22,300
201,104.235,104.24,104.21,104.21,800
203,104.22,104.23,104.22,104.23,693
204,104.21,104.21,104.21,104.21,100
205,104.21,104.22,104.18,104.22,1700
206,104.22,104.25,104.2,104.22,2372
209,104.2,104.2,104.19,104.2,600
211,104.17,104.19,104.17,104.18,900
212,104.18,104.21,104.15,104.16,2370
213,104.18,104.19,104.165,104.18,700
214,104.2,104.21,104.18,104.21,1200
216,104.2,104.2,104.18,104.18,1000
217,104.18,104.2,104.16,104.2,700
219,104.17,104.17,104.17,104.17,400
220,104.13,104.15,104.12,104.15,1150
221,104.16,104.16,104.15,104.15,400
223,104.2,104.2,104.16,104.16,600
224,104.18,104.23,104.18,104.2,2101
227,104.305,104.305,104.23,104.23,1400
228,104.28,104.33,104.27,104.33,937
229,104.26,104.28,104.24,104.28,1800
230,104.2637,104.29,104.2637,104.29,200
231,104.27,104.27,104.24,104.26,563
232,104.24,104.24,104.24,104.24,100
233,104.24,104.25,104.24,104.25,871
234,104.23,104.23,104.23,104.23,100
235,104.23,104.23,104.23,104.23,100
236,104.22,104.23,104.22,104.23,1600
237,104.21,104.245,104.21,104.23,1580
238,104.23,104.233,104.21,104.2236,734
240,104.19,104.19,104.19,104.19,100
241,104.23,104.23,104.22,104.23,699
242,104.18,104.24,104.18,104.23,2400
243,104.16,104.17,104.16,104.17,300
245,104.14,104.14,104.14,104.14,200
246,104.12,104.12,104.12,104.12,100
247,104.12,104.12,104.12,104.12,200
248,104.1418,104.16,104.12,104.12,2566
249,104.14,104.15,104.14,104.15,720
250,104.13,104.13,104.13,104.13,100
251,104.13,104.13,104.13,104.13,100
252,104.16,104.17,104.13,104.15,2200
253,104.165,104.165,104.165,104.165,100
255,104.17,104.1736,104.15,104.1736,2270
257,104.17,104.17,104.17,104.17,300
258,104.16,104.18,104.13,104.17,1100
259,104.17,104.17,104.16,104.16,200
260,104.14,104.16,104.14,104.16,800
261,104.14,104.14,104.14,104.14,100
262,104.14,104.14,104.14,104.14,300
263,104.16,104.17,104.16,104.17,345
264,104.15,104.18,104.14,104.14,1600
265,104.15,104.21,104.15,104.18,1949
266,104.15,104.165,104.15,104.165,600
267,104.12,104.16,104.12,104.15,400
268,104.13,104.15,104.13,104.15,628
269,104.13,104.13,104.12,104.12,1100
270,104.12,104.16,104.12,104.14,3300
272,104.12,104.12,104.12,104.12,200
273,104.12,104.12,104.12,104.12,200
274,104.11,104.11,104.1,104.11,1100
275,104.105,104.13,104.09,104.11,1677
276,104.07,104.1399,104.07,104.1147,3455
278,104.0943,104.1,104.05,104.07,1450
279,104.05,104.09,104.05,104.09,600
280,104.09,104.09,104.09,104.09,100
281,104.07,104.09,104.07,104.09,700
282,104.05,104.0578,104.05,104.0578,466
283,104.03,104.03,104.03,104.03,100
284,104.01,104.04,104.01,104.04,800
285,104,104,103.99,103.99,200
286,103.98,103.997,103.98,103.997,200
287,104,104,103.99,103.99,400
288,104.01,104.03,104.01,104.03,1332
289,104.05,104.05,104.025,104.025,1200
290,104.09,104.09,104.05,104.07,1300
291,104.05,104.1,104.05,104.0852,6867
292,104.04,104.05,104.04,104.05,300
293,104.06,104.06,104.06,104.06,100
294,104.04,104.08,104.04,104.07,1647
295,104.06,104.06,104.06,104.06,400
296,104.04,104.06,104.04,104.06,1781
297,104.02,104.02,104.02,104.02,100
298,104.02,104.04,104.02,104.02,1662
299,104,104,104,104,200
300,103.98,104,103.98,104,600
301,103.98,103.99,103.97,103.98,1000
302,104,104.01,103.98,103.98,1919
303,103.99,103.99,103.99,103.99,100
304,103.97,103.99,103.97,103.99,500
305,103.96,103.97,103.96,103.97,600
306,103.98,103.98,103.97,103.97,800
307,104,104,103.97,103.97,1100
308,104.01,104.01,104.005,104.01,900
309,103.99,104.005,103.99,104,1661
310,103.98,104,103.98,104,200
311,103.97,103.97,103.97,103.97,386
312,103.94,103.97,103.94,103.97,1200
313,103.955,103.96,103.955,103.96,900
314,103.94,103.95,103.94,103.95,741
315,103.92,103.93,103.92,103.93,700
316,103.97,103.97,103.92,103.93,2200
317,103.96,103.97,103.96,103.97,1200
318,103.96,103.96,103.95,103.95,400
319,103.98,103.98,103.96,103.96,2700
320,103.95,103.97,103.95,103.97,400
321,103.9266,103.95,103.9266,103.95,874
322,103.96,103.96,103.96,103.96,1252
323,103.96,103.97,103.96,103.97,500
324,103.955,103.98,103.955,103.96,2309
326,103.9756,103.9756,103.96,103.96,1523
327,103.9218,103.97,103.9218,103.97,1331
328,103.92,103.93,103.92,103.93,500
329,103.93,103.93,103.92,103.92,1800
330,103.93,103.93,103.92,103.92,1533
331,103.94,103.96,103.92,103.94,3206
332,103.92,103.93,103.92,103.93,1000
333,103.87,103.9099,103.87,103.9,929
334,103.88,103.91,103.87,103.87,3016
335,103.9002,103.91,103.9002,103.91,700
336,103.89,103.9,103.87,103.9,900
337,103.87,103.87,103.87,103.87,200
338,103.86,103.87,103.86,103.87,1367
339,103.859,103.8655,103.85,103.86,1633
340,103.828,103.86,103.81,103.85,3414
341,103.84,103.8496,103.8101,103.8496,490
342,103.83,103.83,103.825,103.825,1400
343,103.84,103.84,103.815,103.815,2250
344,103.83,103.83,103.83,103.83,500
345,103.81,103.84,103.81,103.83,4200
346,103.8505,103.8505,103.785,103.79,2356
347,103.85,103.85,103.85,103.85,550
348,103.87,103.87,103.85,103.85,1062
349,103.87,103.87,103.8699,103.87,900
350,103.9,103.9,103.88,103.88,800
351,103.89,103.93,103.89,103.93,2600
352,103.9,103.9,103.88,103.89,1000
353,103.93,103.95,103.91,103.91,3779
354,103.95,103.95,103.92,103.93,1700
355,103.96,103.97,103.96,103.96,1198
356,103.965,103.97,103.96,103.96,900
357,103.96,103.96,103.96,103.96,765
358,103.95,103.95,103.95,103.95,300
359,103.94,103.97,103.94,103.955,3304
360,103.915,103.9368,103.9,103.93,1500
361,103.91,103.93,103.91,103.91,500
362,103.89,103.91,103.88,103.91,1912
363,103.89,103.89,103.88,103.89,1334
364,103.87,103.88,103.87,103.88,600
365,103.86,103.875,103.84,103.875,2213
366,103.83,103.84,103.82,103.84,1793
367,103.82,103.82,103.81,103.82,4187
368,103.86,103.86,103.82,103.82,2475
369,103.85,103.86,103.84,103.86,1200
370,103.84,103.85,103.81,103.83,4243
371,103.88,103.88,103.85,103.86,1530
372,103.87,103.87,103.87,103.87,200
373,103.84,103.87,103.84,103.87,3517
374,103.765,103.84,103.765,103.84,2739
375,103.79,103.81,103.77,103.77,6873
376,103.7866,103.8,103.78,103.79,2835
377,103.76,103.78,103.74,103.78,3325
378,103.77,103.77,103.76,103.76,1200
379,103.73,103.765,103.73,103.76,2807
380,103.67,103.72,103.67,103.72,2301
381,103.73,103.73,103.66,103.66,6182
382,103.73,103.73,103.72,103.72,1505
383,103.72,103.74,103.72,103.73,3280
384,103.73,103.73,103.7,103.72,3992
385,103.76,103.78,103.72,103.72,4756
386,103.76,103.77,103.74,103.75,4348
387,103.75,103.76,103.75,103.75,3762
388,103.72,103.75,103.72,103.75,4445
389,103.72,103.74,103.71,103.72,7759
390,103.72,103.75,103.7,103.73,17811
