EOG,EOG Resources,Energy,3,Oil & Gas Exploration & Production,54182258413,3090185
a1494941400,94.87,94.87,94.87,94.87,26941
1,94.565,95.06,94.56,94.94,10860
2,94.39,94.66,94.39,94.56,3100
3,94.53,94.53,94.42,94.425,10854
4,94.73,94.73,94.51,94.525,4600
5,94.54,94.81,94.54,94.76,3911
6,94.425,94.5621,94.42,94.54,8510
7,94.53,94.5723,94.34,94.405,5031
8,94.495,94.58,94.44,94.472,3760
9,94.52,94.5265,94.47,94.5265,1837
10,94.44,94.56,94.44,94.53,4000
11,94.3895,94.52,94.38,94.49,5081
12,94.3,94.39,94.3,94.35,3035
13,94.245,94.31,94.23,94.28,6132
14,94.13,94.3,94.13,94.23,6365
15,94.15,94.215,94.14,94.185,10741
16,94.16,94.17,94.13,94.13,6370
17,94.195,94.23,94.09,94.13,7734
18,94.26,94.28,94.17,94.17,3900
19,94.33,94.33,94.21,94.26,4000
20,94.355,94.37,94.33,94.34,4000
21,94.465,94.47,94.3799,94.3799,3150
22,94.58,94.58,94.46,94.46,5600
23,94.58,94.63,94.55,94.56,4640
24,94.67,94.71,94.6171,94.6171,5360
25,94.54,94.66,94.54,94.66,5135
26,94.69,94.7,94.55,94.58,4721
27,94.68,94.74,94.67,94.6874,5974
28,94.78,94.81,94.7,94.7,4976
29,94.61,94.78,94.61,94.78,5513
30,94.57,94.65,94.57,94.58,13695
31,94.5,94.61,94.5,94.57,3928
32,94.48,94.54,94.48,94.54,2300
33,94.46,94.51,94.42,94.48,6321
34,94.4,94.5,94.4,94.44,3290
35,94.45,94.45,94.39,94.39,3050
36,94.38,94.46,94.38,94.46,1700
37,94.45,94.5,94.425,94.4399,4521
38,94.47,94.48,94.4,94.445,3500
39,94.39,94.45,94.38,94.45,1900
40,94.475,94.48,94.37,94.37,2900
41,94.395,94.5597,94.395,94.47,8005
42,94.43,94.46,94.37,94.43,13000
43,94.425,94.44,94.4,94.41,1800
44,94.4,94.47,94.34,94.4,7013
45,94.42,94.435,94.4,94.4,4216
46,94.355,94.42,94.34,94.39,3200
47,94.38,94.42,94.36,94.38,11600
48,94.4,94.4,94.31,94.36,5200
49,94.28,94.44,94.28,94.39,15500
50,94.27,94.3,94.24,94.28,7375
51,94.235,94.34,94.23,94.31,4800
52,94.14,94.22,94.11,94.22,2600
53,94.15,94.17,94.12,94.13,1200
54,94.24,94.26,94.12,94.13,6319
55,94.18,94.33,94.18,94.2526,13838
56,94.14,94.175,94.08,94.16,4150
57,94.2,94.26,94.14,94.15,6490
58,94.14,94.2,94.13,94.18,3200
59,94.17,94.17,94.1,94.1,1530
60,94.28,94.28,94.19,94.19,1700
61,94.3399,94.34,94.2734,94.2734,1681
62,94.265,94.38,94.265,94.33,5309
63,94.17,94.31,94.17,94.28,6970
64,94.14,94.16,94.11,94.16,3600
65,94.15,94.18,94.12,94.13,3700
66,94.1256,94.15,94.12,94.15,1869
67,94.29,94.3,94.17,94.17,7508
68,94.3,94.315,94.29,94.295,2932
69,94.24,94.3011,94.18,94.3011,15222
70,94.12,94.249,94.12,94.249,5614
71,94.001,94.15,94,94.15,7579
72,93.95,94,93.92,94,7252
73,94.035,94.035,93.95,93.97,13680
74,94.08,94.0925,94.01,94.03,6000
75,94.09,94.14,94.04,94.07,4426
76,94.11,94.16,94.09,94.105,16680
77,93.92,94.11,93.92,94.11,12624
78,93.99,93.99,93.93,93.945,10407
79,94.05,94.05,93.98,93.9886,10914
80,93.9701,94.06,93.9701,94.05,6778
81,94.02,94.05,93.97,93.97,6752
82,94.01,94.06,93.985,94.01,2600
83,93.99,94.02,93.98,94,3460
84,94.06,94.08,93.99,93.99,4800
85,94.05,94.08,94.05,94.06,4898
86,94.045,94.05,94,94.03,6616
87,93.965,94.06,93.96,94.045,3910
88,93.98,94,93.95,93.965,10700
89,94.02,94.02,93.96,93.98,3400
90,93.94,94.04,93.93,94.04,4665
91,93.95,93.97,93.95,93.96,4120
92,93.965,93.97,93.95,93.95,5500
93,93.985,94.01,93.95,93.95,10296
94,93.925,94.03,93.9101,93.95,4490
95,93.95,93.95,93.95,93.95,500
96,94,94.02,93.96,93.97,14704
97,94.04,94.04,94,94.03,1143
98,94.01,94.04,94,94.03,2300
99,94.02,94.08,94.02,94.03,4052
100,94.01,94.04,94.01,94.03,1800
101,94.02,94.05,94.01,94.04,3000
102,94.14,94.14,94.02,94.03,5293
103,94.17,94.17,94.11,94.125,3001
104,94.23,94.25,94.19,94.19,5749
105,94.19,94.22,94.17,94.21,2700
106,94.25,94.25,94.13,94.17,6200
107,94.257,94.26,94.22,94.26,2445
108,94.19,94.26,94.19,94.26,2200
109,94.235,94.24,94.21,94.21,3935
110,94.23,94.29,94.23,94.235,9796
111,94.26,94.28,94.23,94.23,1400
112,94.29,94.34,94.26,94.3,11431
113,94.255,94.28,94.23,94.28,2250
114,94.28,94.31,94.23,94.26,7612
115,94.261,94.28,94.24,94.28,1947
116,94.29,94.31,94.25,94.25,4114
117,94.315,94.32,94.28,94.295,2733
118,94.315,94.34,94.31,94.31,6602
119,94.32,94.33,94.31,94.31,4536
120,94.36,94.36,94.325,94.325,3495
121,94.34,94.37,94.31,94.37,6199
122,94.25,94.31,94.24,94.31,2600
123,94.22,94.25,94.22,94.25,1750
124,94.28,94.28,94.22,94.22,3764
125,94.25,94.28,94.25,94.27,1600
126,94.245,94.25,94.21,94.23,1855
127,94.27,94.275,94.24,94.245,2800
128,94.2,94.29,94.2,94.28,2500
129,94.225,94.24,94.21,94.22,10200
130,94.31,94.31,94.21,94.22,3513
131,94.24,94.31,94.22,94.31,1800
132,94.245,94.27,94.23,94.24,2775
133,94.24,94.26,94.23,94.245,1700
134,94.23,94.253,94.22,94.24,8141
135,94.25,94.28,94.23,94.23,5350
136,94.24,94.27,94.225,94.225,2100
137,94.215,94.23,94.2,94.23,3900
138,94.225,94.27,94.215,94.215,4500
139,94.225,94.24,94.205,94.22,3851
140,94.22,94.24,94.205,94.225,3250
141,94.245,94.26,94.22,94.23,1200
142,94.21,94.25,94.21,94.245,2300
143,94.24,94.24,94.21,94.21,800
144,94.26,94.26,94.22,94.24,3900
145,94.2461,94.26,94.22,94.255,2700
146,94.235,94.25,94.22,94.235,5564
147,94.23,94.25,94.22,94.235,700
148,94.189,94.21,94.16,94.21,7680
149,94.2,94.23,94.17,94.18,5625
150,94.17,94.19,94.14,94.19,2400
151,94.17,94.18,94.14,94.18,2600
152,94.18,94.18,94.16,94.17,4150
153,94.1661,94.19,94.1661,94.19,1303
154,94.2,94.23,94.18,94.18,2945
156,94.17,94.21,94.17,94.185,1065
157,94.19,94.2,94.17,94.2,3808
158,94.16,94.18,94.15,94.18,1200
159,94.16,94.16,94.16,94.16,900
160,94.1748,94.19,94.17,94.17,2528
161,94.21,94.25,94.2,94.2,4762
162,94.2,94.22,94.17,94.1867,1710
163,94.16,94.21,94.14,94.205,2400
164,94.15,94.19,94.15,94.18,3939
165,94.16,94.16,94.16,94.16,100
166,94.19,94.19,94.15,94.16,3703
167,94.17,94.18,94.17,94.18,2000
168,94.16,94.179,94.16,94.179,1000
169,94.165,94.19,94.165,94.17,2700
170,94.225,94.225,94.18,94.18,1954
171,94.24,94.2525,94.22,94.24,5258
172,94.235,94.25,94.23,94.23,1350
173,94.2725,94.28,94.25,94.25,2139
174,94.265,94.28,94.25,94.28,3001
175,94.18,94.28,94.18,94.265,3561
176,94.155,94.2,94.155,94.19,3950
177,94.28,94.28,94.16,94.17,13433
178,94.27,94.3,94.27,94.3,2100
179,94.27,94.31,94.25,94.27,6200
180,94.29,94.3,94.27,94.27,3228
181,94.22,94.27,94.22,94.27,2200
182,94.18,94.225,94.18,94.225,3400
183,94.18,94.22,94.18,94.2,2100
184,94.175,94.18,94.14,94.16,4350
185,94.155,94.19,94.14,94.19,2383
186,94.12,94.14,94.08,94.14,3200
187,94.135,94.14,94.12,94.13,1500
188,94.1425,94.17,94.12,94.12,8692
189,94.09,94.1783,94.08,94.13,14381
190,94.107,94.11,94.07,94.105,12360
191,94.11,94.11,94.06,94.095,11731
192,94.05,94.11,94.05,94.11,3869
193,94.04,94.065,94.04,94.065,1400
194,94.03,94.06,94.03,94.055,3900
195,94.08,94.08,94.03,94.03,2991
196,94.0773,94.085,94.05,94.08,2204
197,94.04,94.13,94.04,94.09,9095
198,94.07,94.07,94.03,94.04,1800
199,94.055,94.0607,94.04,94.05,950
200,94.01,94.055,94.01,94.055,4571
201,94.02,94.03,94,94.01,2010
202,93.93,94.01,93.93,94.01,8181
203,93.95,93.9648,93.93,93.93,4479
204,93.925,93.95,93.92,93.95,2800
205,93.93,93.94,93.91,93.91,2503
206,93.91,93.925,93.91,93.92,900
207,93.92,93.9352,93.91,93.9352,3308
208,93.96,93.97,93.9396,93.9396,3550
209,93.82,93.95,93.82,93.95,3200
210,93.84,93.85,93.82,93.83,2579
211,93.8,93.85,93.8,93.84,3239
212,93.68,93.8,93.66,93.79,3737
213,93.71,93.75,93.699,93.699,8986
214,93.664,93.7,93.664,93.67,1700
215,93.72,93.74,93.68,93.68,3148
216,93.75,93.75,93.72,93.72,1400
217,93.7403,93.76,93.74,93.75,2100
218,93.755,93.76,93.7,93.74,8851
219,93.76,93.77,93.75,93.7563,3355
220,93.79,93.79,93.76,93.78,3650
221,93.79,93.8,93.77,93.8,2500
222,93.8,93.85,93.8,93.81,6737
223,93.772,93.799,93.772,93.799,1304
224,93.74,93.77,93.72,93.76,7163
225,93.68,93.74,93.68,93.735,2367
226,93.6201,93.68,93.6201,93.68,1100
227,93.6309,93.65,93.5901,93.65,3644
228,93.635,93.64,93.6,93.62,6800
229,93.65,93.65,93.615,93.62,3021
230,93.69,93.71,93.66,93.67,2700
231,93.73,93.73,93.707,93.72,1850
232,93.76,93.77,93.72,93.74,4830
233,93.79,93.79,93.76,93.77,1300
234,93.765,93.82,93.7601,93.8,4961
235,93.775,93.775,93.745,93.745,1000
236,93.76,93.79,93.76,93.77,4784
237,93.71,93.76,93.71,93.76,1000
238,93.7075,93.73,93.69,93.71,2390
239,93.67,93.7,93.67,93.7,2433
240,93.6003,93.69,93.6,93.69,5935
241,93.6,93.63,93.59,93.59,6856
242,93.6,93.61,93.59,93.6,6016
243,93.55,93.6,93.55,93.6,4068
244,93.605,93.62,93.57,93.57,2518
245,93.6386,93.655,93.62,93.62,4129
246,93.65,93.67,93.63,93.63,2954
247,93.65,93.6697,93.65,93.6697,1500
248,93.6209,93.642,93.61,93.642,4000
249,93.58,93.63,93.58,93.61,3999
250,93.54,93.58,93.54,93.58,2401
251,93.54,93.545,93.52,93.545,3156
252,93.5657,93.57,93.54,93.55,5742
253,93.62,93.64,93.57,93.57,5750
254,93.65,93.65,93.6,93.615,3000
255,93.644,93.66,93.6201,93.65,3858
256,93.67,93.69,93.66,93.68,4600
257,93.705,93.705,93.6601,93.67,3654
258,93.73,93.75,93.6901,93.71,4180
259,93.7437,93.77,93.74,93.75,3750
260,93.7204,93.7399,93.72,93.7357,2935
261,93.71,93.74,93.71,93.71,1686
262,93.7,93.73,93.68,93.71,4451
263,93.72,93.72,93.69,93.7,3303
264,93.72,93.72,93.69,93.71,2700
265,93.73,93.73,93.71,93.73,3806
266,93.71,93.745,93.69,93.74,4875
267,93.64,93.72,93.64,93.71,6400
268,93.64,93.67,93.6301,93.64,5481
269,93.68,93.68,93.66,93.66,1250
270,93.64,93.685,93.63,93.63,6805
271,93.66,93.67,93.64,93.64,2400
272,93.65,93.67,93.64,93.67,700
273,93.6,93.65,93.6,93.64,4830
274,93.61,93.61,93.6,93.6,3700
275,93.605,93.62,93.59,93.61,2048
276,93.64,93.65,93.62,93.62,5666
277,93.66,93.67,93.65,93.65,3096
278,93.72,93.72,93.66,93.66,7216
279,93.73,93.76,93.73,93.73,2425
280,93.75,93.75,93.72,93.75,7040
281,93.73,93.74,93.7,93.74,3198
282,93.72,93.7299,93.71,93.7243,4379
283,93.71,93.72,93.71,93.72,2076
284,93.68,93.705,93.67,93.7,3646
285,93.6671,93.7,93.6671,93.68,4407
286,93.6907,93.6907,93.66,93.675,4671
287,93.6999,93.7,93.685,93.7,655
288,93.69,93.7,93.68,93.7,2936
289,93.7401,93.75,93.68,93.6999,10398
290,93.75,93.78,93.74,93.76,5728
291,93.78,93.8,93.755,93.755,5611
292,93.75,93.78,93.75,93.78,4175
293,93.75,93.76,93.74,93.76,2429
294,93.76,93.78,93.76,93.76,3000
295,93.74,93.77,93.74,93.76,5564
296,93.69,93.75,93.66,93.74,11503
297,93.72,93.72,93.6628,93.67,4410
298,93.7,93.72,93.69,93.71,4400
299,93.74,93.77,93.68,93.68,9157
300,93.78,93.78,93.75,93.75,1400
301,93.79,93.79,93.75,93.75,8104
302,93.8,93.8134,93.79,93.8,5353
303,93.8379,93.84,93.8,93.81,5721
304,93.84,93.85,93.83,93.84,2381
305,93.82,93.85,93.82,93.85,6116
306,93.84,93.84,93.81,93.825,4350
307,93.85,93.85,93.81,93.8167,2510
308,93.84,93.84,93.83,93.83,5058
309,93.805,93.83,93.79,93.83,3200
310,93.79,93.805,93.79,93.791,882
311,93.821,93.84,93.795,93.795,8340
312,93.84,93.84,93.82,93.84,4367
313,93.85,93.85,93.84,93.84,200
314,93.8258,93.84,93.82,93.835,1423
315,93.85,93.85,93.82,93.839,4650
316,93.854,93.854,93.84,93.85,8682
317,93.85,93.86,93.85,93.85,3607
318,93.88,93.88,93.8401,93.85,3557
319,93.87,93.89,93.87,93.878,3550
320,93.86,93.89,93.86,93.88,3075
321,93.899,93.9,93.85,93.876,9927
322,93.86,93.9,93.86,93.9,8290
323,93.8301,93.87,93.8301,93.85,1263
324,93.801,93.85,93.8,93.85,12879
325,93.77,93.8,93.77,93.8,2763
326,93.79,93.79,93.765,93.77,4653
327,93.8,93.8,93.76,93.79,8669
328,93.8,93.81,93.79,93.8,6532
329,93.785,93.81,93.77,93.79,4490
330,93.78,93.7807,93.77,93.78,810
331,93.82,93.82,93.77,93.77,7160
332,93.86,93.86,93.82,93.82,8149
333,93.91,93.91,93.86,93.86,6500
334,93.97,93.97,93.91,93.91,6047
335,93.99,93.99,93.958,93.97,6382
336,94.05,94.05,93.99,94,10946
337,94.14,94.16,94.05,94.05,16876
338,94.1,94.18,94.095,94.18,11780
339,94,94.09,93.9914,94.08,4757
340,93.965,94,93.96,93.995,4700
341,94.01,94.01,93.96,93.97,7867
342,94.08,94.08,93.995,94.02,11738
343,94.04,94.07,94.04,94.05,2746
344,94.03,94.06,94.03,94.05,7850
345,94.02,94.04,94.01,94.04,4845
346,94.02,94.02,94.01,94.02,1500
347,93.96,94.03,93.96,94.02,15116
348,93.975,93.98,93.9501,93.96,4377
349,93.97,93.98,93.96,93.975,3795
350,93.94,93.96,93.93,93.96,3071
351,93.98,93.98,93.94,93.94,6029
352,94.02,94.03,93.97,93.97,12767
353,94,94.02,94,94.0185,4314
354,93.98,93.9992,93.98,93.995,8252
355,94,94,93.95,93.98,7958
356,93.99,94.02,93.99,93.99,9201
357,93.999,94,93.95,93.98,3328
358,94.01,94.02,93.98,94,6652
359,94.055,94.09,94,94.01,9319
360,94.07,94.095,94.06,94.08,5545
361,94.05,94.08,94.05,94.07,9066
362,94.03,94.05,94.03,94.04,5446
363,94.026,94.04,94.01,94.03,7079
364,94.06,94.07,94.01,94.02,8140
365,94.08,94.095,94.05,94.06,6910
366,94.1,94.12,94.08,94.08,11065
367,94.115,94.13,94.1,94.12,10651
368,94.12,94.13,94.11,94.13,6201
369,94.16,94.1675,94.12,94.13,11691
370,94.2,94.2,94.16,94.16,8380
371,94.14,94.205,94.14,94.205,9212
372,94.04,94.12,94.04,94.12,11651
373,94.04,94.05,94.03,94.03,6249
374,94.04,94.08,94.04,94.06,15109
375,94,94.06,94,94.04,11068
376,93.98,94.0062,93.98,94,7711
377,93.98,93.99,93.97,93.97,10103
378,93.98,94.01,93.975,93.9785,10129
379,93.94,93.985,93.94,93.985,7562
380,93.91,93.97,93.9,93.94,14506
381,93.91,93.93,93.9,93.91,11454
382,93.94,93.94,93.9,93.91,12196
383,93.925,93.95,93.92,93.94,10732
384,93.925,93.95,93.92,93.935,14061
385,93.92,93.95,93.92,93.925,11416
386,93.9,93.93,93.89,93.93,16478
387,93.8001,93.905,93.8,93.9,18155
388,93.8001,93.81,93.79,93.8,17184
389,93.825,93.825,93.7701,93.805,23199
390,93.83,93.85,93.81,93.825,36285
