PPG,PPG Industries,Materials,8,Specialty Chemicals,27739034515,1260083
a1494941400,107.92,107.92,107.92,107.92,8148
2,107.9801,108.05,107.9801,108.05,200
3,107.93,107.98,107.93,107.98,225
4,107.94,107.96,107.93,107.93,1100
5,107.98,107.98,107.98,107.98,400
7,107.85,107.99,107.85,107.99,678
8,107.97,107.97,107.97,107.97,100
10,107.94,107.96,107.92,107.9396,2380
11,108.07,108.07,107.97,107.97,1600
12,107.92,108.05,107.92,108.05,500
13,107.92,107.92,107.92,107.92,100
14,107.85,107.94,107.83,107.93,1452
15,107.84,107.86,107.84,107.85,540
16,107.85,107.86,107.815,107.86,600
17,107.88,107.8894,107.85,107.85,775
18,107.91,107.92,107.8906,107.8906,919
20,108.04,108.04,108.04,108.04,100
21,107.96,107.96,107.935,107.96,700
22,107.97,107.97,107.94,107.94,300
23,107.97,107.97,107.97,107.97,100
24,107.925,107.95,107.925,107.95,300
25,107.96,107.98,107.93,107.96,1319
26,107.915,107.95,107.88,107.94,900
27,107.9,107.9,107.9,107.9,200
28,107.89,107.89,107.86,107.86,300
29,107.8605,107.8605,107.841,107.841,510
30,107.84,107.84,107.8399,107.84,700
31,107.81,107.84,107.8,107.815,1981
32,107.81,107.84,107.81,107.83,1300
33,107.8778,107.8778,107.813,107.813,1792
34,107.86,107.86,107.85,107.86,415
35,107.83,107.87,107.82,107.8508,1000
36,107.865,107.865,107.8301,107.84,966
37,107.855,107.9,107.85,107.85,1604
38,107.87,107.88,107.86,107.86,600
39,107.97,107.97,107.87,107.87,900
40,107.91,107.93,107.91,107.93,400
41,107.91,107.91,107.91,107.91,1000
42,107.9,107.9,107.9,107.9,200
43,107.86,107.92,107.86,107.92,600
44,107.85,107.85,107.85,107.85,200
45,107.83,107.83,107.82,107.82,500
46,107.82,107.84,107.82,107.83,1169
47,107.83,107.83,107.815,107.83,1600
48,107.85,107.85,107.83,107.83,400
49,107.825,107.85,107.82,107.83,1500
50,107.82,107.82,107.82,107.82,300
51,107.82,107.8399,107.81,107.81,1828
52,107.741,107.825,107.741,107.82,1177
53,107.75,107.75,107.75,107.75,100
54,107.73,107.78,107.73,107.74,1175
57,107.6,107.68,107.6,107.68,850
58,107.58,107.61,107.55,107.61,2000
59,107.56,107.59,107.56,107.57,1000
61,107.67,107.7,107.58,107.58,1800
62,107.59,107.74,107.59,107.73,1403
64,107.67,107.67,107.65,107.65,300
65,107.7,107.74,107.67,107.67,1912
66,107.68,107.68,107.6372,107.68,890
67,107.71,107.71,107.7,107.7,1000
68,107.65,107.7,107.65,107.695,881
69,107.67,107.6784,107.67,107.6784,240
71,107.62,107.66,107.62,107.66,1100
72,107.54,107.54,107.54,107.54,100
73,107.48,107.51,107.48,107.51,500
74,107.4893,107.4893,107.45,107.46,845
75,107.48,107.48,107.47,107.47,300
76,107.56,107.56,107.48,107.49,1613
77,107.49,107.56,107.48,107.56,1300
78,107.535,107.5438,107.51,107.5438,1149
79,107.56,107.59,107.53,107.53,1600
80,107.61,107.61,107.5723,107.5723,885
81,107.5348,107.615,107.53,107.6,1992
82,107.62,107.62,107.54,107.54,1416
84,107.6229,107.6229,107.6229,107.6229,515
85,107.6,107.61,107.6,107.61,600
87,107.62,107.64,107.61,107.61,1500
88,107.58,107.58,107.58,107.58,100
89,107.55,107.57,107.55,107.57,400
91,107.54,107.57,107.54,107.56,1000
92,107.46,107.51,107.44,107.49,675
93,107.53,107.54,107.51,107.51,1200
94,107.55,107.55,107.525,107.525,200
95,107.58,107.58,107.56,107.58,700
96,107.5627,107.57,107.55,107.55,1752
97,107.55,107.59,107.55,107.56,300
98,107.55,107.58,107.55,107.58,1001
99,107.57,107.57,107.57,107.57,200
100,107.55,107.55,107.55,107.55,100
101,107.53,107.55,107.53,107.55,542
102,107.53,107.55,107.53,107.54,300
104,107.6,107.6,107.55,107.55,2406
105,107.6,107.62,107.59,107.62,500
106,107.615,107.615,107.615,107.615,100
107,107.58,107.61,107.58,107.61,1617
109,107.59,107.6,107.59,107.6,642
111,107.56,107.56,107.56,107.56,100
112,107.595,107.6,107.58,107.59,1200
113,107.61,107.61,107.59,107.59,300
114,107.61,107.62,107.59,107.59,1337
116,107.6,107.61,107.6,107.61,400
117,107.63,107.64,107.63,107.63,1246
118,107.62,107.63,107.62,107.63,200
119,107.61,107.63,107.61,107.63,900
120,107.6,107.62,107.59,107.62,1510
121,107.59,107.61,107.58,107.6,900
122,107.53,107.57,107.53,107.57,700
123,107.49,107.51,107.49,107.51,400
124,107.51,107.51,107.49,107.5,1100
125,107.5,107.51,107.5,107.51,300
126,107.52,107.53,107.52,107.53,600
127,107.55,107.55,107.5229,107.5229,1297
128,107.55,107.56,107.54,107.56,1200
129,107.55,107.55,107.55,107.55,500
130,107.53,107.54,107.53,107.53,6054
131,107.54,107.54,107.53,107.53,700
132,107.51,107.54,107.51,107.54,800
133,107.51,107.51,107.5,107.5,600
134,107.52,107.52,107.5095,107.51,1000
135,107.52,107.52,107.52,107.52,100
136,107.535,107.54,107.525,107.54,500
137,107.5,107.52,107.5,107.52,610
138,107.5,107.5,107.47,107.48,1700
139,107.51,107.51,107.47,107.49,688
140,107.525,107.525,107.5,107.51,300
141,107.56,107.56,107.56,107.56,100
142,107.575,107.59,107.55,107.57,582
144,107.57,107.58,107.57,107.58,680
145,107.58,107.61,107.57,107.587,1387
146,107.57,107.58,107.57,107.575,510
147,107.5502,107.58,107.55,107.57,1458
148,107.543,107.56,107.54,107.54,1300
149,107.52,107.54,107.52,107.54,600
151,107.52,107.54,107.5052,107.5052,1150
152,107.51,107.51,107.5,107.51,300
153,107.52,107.52,107.52,107.52,300
154,107.51,107.5175,107.5001,107.505,814
155,107.53,107.53,107.53,107.53,631
156,107.54,107.54,107.52,107.53,910
157,107.53,107.53,107.52,107.53,700
158,107.55,107.55,107.55,107.55,300
159,107.57,107.57,107.57,107.57,100
160,107.55,107.56,107.55,107.56,300
161,107.6,107.61,107.57,107.57,1200
162,107.6,107.61,107.6,107.61,300
163,107.565,107.58,107.56,107.58,1100
164,107.54,107.57,107.54,107.57,261
165,107.56,107.56,107.56,107.56,400
166,107.6,107.6,107.55,107.55,800
167,107.61,107.61,107.61,107.61,100
168,107.61,107.62,107.61,107.62,500
170,107.58,107.59,107.58,107.59,400
171,107.58,107.58,107.58,107.58,200
172,107.58,107.58,107.58,107.58,200
173,107.52,107.55,107.52,107.55,600
174,107.55,107.55,107.54,107.54,700
175,107.55,107.55,107.545,107.55,500
176,107.56,107.56,107.56,107.56,400
177,107.56,107.56,107.56,107.56,200
178,107.57,107.57,107.56,107.56,600
179,107.605,107.61,107.58,107.58,300
180,107.58,107.58,107.58,107.58,100
181,107.5682,107.58,107.56,107.58,2100
182,107.54,107.56,107.54,107.56,1600
183,107.55,107.55,107.55,107.55,100
184,107.545,107.55,107.535,107.535,1043
185,107.56,107.58,107.55,107.55,1200
186,107.55,107.55,107.55,107.55,200
187,107.555,107.555,107.555,107.555,100
188,107.58,107.58,107.58,107.58,100
190,107.575,107.59,107.55,107.55,900
192,107.6,107.6,107.6,107.6,100
193,107.54,107.58,107.54,107.57,1400
194,107.55,107.56,107.54,107.56,600
195,107.56,107.56,107.55,107.56,400
196,107.62,107.62,107.57,107.57,1700
197,107.61,107.61,107.6,107.6,400
198,107.58,107.59,107.58,107.59,600
199,107.59,107.59,107.589,107.589,1732
200,107.59,107.59,107.57,107.59,2295
201,107.61,107.61,107.6038,107.61,588
202,107.6,107.6,107.58,107.6,700
203,107.57,107.57,107.57,107.57,100
204,107.58,107.58,107.57,107.57,1100
205,107.58,107.58,107.58,107.58,152
206,107.59,107.59,107.58,107.58,1250
207,107.53,107.58,107.51,107.58,786
208,107.55,107.55,107.51,107.51,400
209,107.51,107.52,107.51,107.52,639
210,107.5,107.53,107.5,107.52,600
211,107.51,107.53,107.48,107.53,1848
212,107.45,107.5,107.45,107.5,1100
213,107.47,107.48,107.45,107.46,1600
214,107.47,107.47,107.46,107.46,300
215,107.44,107.45,107.44,107.45,200
216,107.45,107.48,107.45,107.46,2353
217,107.47,107.47,107.45,107.45,1600
218,107.46,107.48,107.46,107.48,800
219,107.46,107.46,107.45,107.45,700
220,107.46,107.46,107.46,107.46,100
221,107.46,107.46,107.46,107.46,100
222,107.45,107.46,107.43,107.45,1400
223,107.43,107.44,107.43,107.44,500
224,107.43,107.45,107.43,107.43,1300
225,107.44,107.44,107.44,107.44,200
226,107.44,107.46,107.43,107.43,560
227,107.49,107.49,107.45,107.47,2394
228,107.48,107.48,107.48,107.48,300
229,107.45,107.48,107.45,107.48,1300
230,107.4625,107.47,107.45,107.47,600
231,107.465,107.47,107.46,107.47,800
232,107.46,107.46,107.46,107.46,100
233,107.47,107.47,107.45,107.45,1349
234,107.47,107.48,107.47,107.47,500
235,107.48,107.48,107.48,107.48,800
236,107.46,107.47,107.46,107.47,1150
237,107.46,107.46,107.45,107.45,600
239,107.45,107.45,107.44,107.45,1000
240,107.445,107.445,107.43,107.44,900
241,107.45,107.46,107.45,107.45,1060
242,107.44,107.445,107.44,107.44,871
243,107.39,107.44,107.39,107.44,2105
244,107.38,107.39,107.37,107.38,718
245,107.36,107.38,107.36,107.38,1300
246,107.36,107.37,107.36,107.365,1507
247,107.37,107.37,107.37,107.37,800
249,107.375,107.38,107.37,107.37,900
250,107.37,107.37,107.36,107.37,1222
251,107.37,107.37,107.37,107.37,100
252,107.3701,107.38,107.37,107.38,800
253,107.4,107.4,107.38,107.38,1000
254,107.44,107.44,107.4,107.4,1618
255,107.41,107.435,107.41,107.435,800
256,107.44,107.44,107.42,107.42,900
257,107.43,107.44,107.43,107.44,348
259,107.43,107.43,107.43,107.43,200
260,107.4042,107.43,107.4,107.43,2465
261,107.42,107.42,107.4,107.4,1100
262,107.42,107.42,107.41,107.42,800
263,107.43,107.43,107.43,107.43,600
264,107.42,107.42,107.41,107.42,600
265,107.42,107.43,107.4,107.4,400
266,107.39,107.41,107.39,107.41,1300
267,107.38,107.38,107.37,107.38,685
268,107.34,107.36,107.34,107.35,600
270,107.33,107.345,107.32,107.33,2400
271,107.35,107.35,107.33,107.34,965
272,107.3657,107.37,107.34,107.34,1753
273,107.35,107.36,107.35,107.36,300
274,107.36,107.38,107.34,107.36,1100
275,107.38,107.38,107.365,107.37,900
276,107.39,107.39,107.37,107.38,1271
277,107.41,107.41,107.4,107.4,900
279,107.39,107.4,107.39,107.4,1800
280,107.43,107.43,107.4,107.4,1200
282,107.43,107.43,107.43,107.43,100
283,107.42,107.42,107.392,107.41,3827
285,107.41,107.41,107.41,107.41,100
286,107.38,107.415,107.38,107.415,1400
287,107.382,107.3999,107.382,107.39,1361
288,107.4,107.41,107.38,107.39,2272
289,107.41,107.42,107.39,107.4,1500
290,107.4173,107.4173,107.4,107.4,826
291,107.39,107.3901,107.39,107.3901,319
292,107.39,107.4,107.39,107.39,1400
293,107.41,107.41,107.38,107.39,1564
294,107.4,107.4052,107.4,107.4052,1377
295,107.38,107.41,107.38,107.41,1300
296,107.35,107.35,107.35,107.35,100
297,107.34,107.35,107.33,107.35,903
298,107.274,107.32,107.26,107.32,1791
299,107.25,107.27,107.25,107.26,500
300,107.3,107.3,107.26,107.26,3000
301,107.34,107.35,107.31,107.31,2200
302,107.38,107.38,107.34,107.35,400
303,107.38,107.38,107.38,107.38,400
304,107.36,107.37,107.36,107.36,502
305,107.36,107.37,107.35,107.37,803
306,107.335,107.34,107.31,107.34,4149
307,107.32,107.335,107.32,107.32,300
308,107.3301,107.34,107.33,107.34,720
309,107.32,107.33,107.32,107.33,300
310,107.34,107.34,107.33,107.33,900
312,107.33,107.33,107.325,107.33,724
313,107.31,107.32,107.31,107.32,1100
314,107.28,107.3,107.28,107.29,705
315,107.28,107.28,107.26,107.27,1700
316,107.3,107.3,107.285,107.29,900
317,107.31,107.31,107.3,107.3,1000
318,107.285,107.3,107.285,107.3,1400
319,107.31,107.31,107.285,107.29,1275
320,107.29,107.3,107.29,107.295,953
321,107.29,107.3,107.29,107.29,400
322,107.34,107.34,107.3,107.3,2044
323,107.33,107.355,107.33,107.345,853
325,107.31,107.31,107.31,107.31,635
326,107.2901,107.2901,107.2901,107.2901,188
327,107.3,107.31,107.26,107.305,4150
328,107.29,107.29,107.29,107.29,200
330,107.29,107.29,107.275,107.28,900
331,107.3,107.3,107.2801,107.29,1260
332,107.31,107.33,107.3,107.3,1600
333,107.32,107.32,107.32,107.32,275
334,107.32,107.32,107.31,107.31,700
335,107.32,107.32,107.32,107.32,200
336,107.32,107.33,107.32,107.32,1500
337,107.32,107.325,107.32,107.325,300
338,107.3292,107.33,107.31,107.3254,1175
339,107.3,107.33,107.3,107.33,1500
340,107.3,107.3047,107.3,107.3,1024
341,107.3,107.31,107.29,107.3,800
342,107.34,107.34,107.3,107.31,3100
343,107.35,107.35,107.33,107.33,500
344,107.39,107.39,107.35,107.35,500
345,107.39,107.4,107.37,107.39,2860
346,107.37,107.38,107.37,107.38,300
347,107.39,107.39,107.37,107.37,300
348,107.36,107.38,107.36,107.37,1782
349,107.36,107.37,107.36,107.36,1600
350,107.36,107.36,107.35,107.36,800
351,107.38,107.39,107.36,107.36,3112
352,107.4,107.4,107.39,107.39,900
353,107.42,107.44,107.42,107.43,950
354,107.43,107.44,107.43,107.44,1600
355,107.42,107.42,107.41,107.42,946
356,107.4,107.42,107.39,107.42,3550
357,107.41,107.41,107.37,107.4,3770
358,107.4,107.4,107.4,107.4,100
359,107.41,107.43,107.4,107.4,1600
360,107.44,107.44,107.4,107.43,3024
361,107.37,107.4101,107.37,107.41,3912
362,107.4,107.4,107.37,107.37,1300
363,107.41,107.41,107.4,107.4,300
364,107.43,107.44,107.43,107.43,300
365,107.41,107.425,107.405,107.42,2500
366,107.42,107.42,107.42,107.42,1133
367,107.44,107.44,107.42,107.42,1200
368,107.45,107.45,107.43,107.43,1224
369,107.47,107.48,107.44,107.44,1048
370,107.47,107.49,107.47,107.48,3064
372,107.49,107.49,107.48,107.485,1357
373,107.5046,107.52,107.5,107.51,2294
374,107.5153,107.5153,107.51,107.51,732
375,107.48,107.52,107.48,107.51,2933
376,107.45,107.49,107.45,107.48,4883
377,107.49,107.5,107.455,107.46,1508
378,107.45,107.495,107.45,107.495,2301
379,107.435,107.45,107.43,107.43,1200
380,107.41,107.44,107.4,107.44,3215
381,107.415,107.43,107.4,107.41,4463
382,107.39,107.42,107.39,107.41,2428
383,107.4,107.41,107.385,107.385,5728
384,107.39,107.395,107.38,107.39,4000
385,107.39,107.41,107.37,107.39,4844
386,107.38,107.4,107.38,107.38,2583
387,107.39,107.4,107.38,107.39,3914
388,107.41,107.41,107.38,107.38,5217
389,107.38,107.4,107.38,107.39,3200
390,107.42,107.44,107.38,107.38,14602
