PPG,PPG Industries,Materials,8,Specialty Chemicals,27344573233,1307380
a1494595800,107.29,107.29,107.29,107.29,5478
1,106.85,106.85,106.85,106.85,100
2,107.2047,107.2047,107.04,107.04,500
3,107.2,107.2,107.2,107.2,494
4,107.05,107.05,107.05,107.05,195
5,106.88,107.07,106.88,107.07,500
6,106.82,107.07,106.82,106.96,1959
7,107.29,107.29,106.92,106.98,2286
8,107.13,107.18,107.13,107.1488,466
9,106.9,107.14,106.87,107.11,2100
10,106.96,106.98,106.96,106.98,200
11,107.18,107.18,106.98,106.98,1500
12,107.1999,107.1999,107.1999,107.1999,100
13,107.255,107.31,107.19,107.19,1193
14,107.3,107.3,107.15,107.21,650
15,107.25,107.26,107.19,107.26,773
16,107.4,107.4,107.19,107.19,1600
17,107.36,107.36,107.36,107.36,100
18,107.41,107.41,107.41,107.41,100
19,107.4,107.43,107.4,107.42,300
20,107.33,107.44,107.31,107.44,2067
21,107.32,107.33,107.3,107.3,800
22,107.29,107.3799,107.26,107.3799,500
23,107.32,107.32,107.24,107.31,800
24,107.36,107.39,107.33,107.33,1000
25,107.46,107.47,107.43,107.43,300
26,107.27,107.44,107.27,107.42,1800
28,107.29,107.3,107.29,107.3,200
30,107.26,107.26,107.26,107.26,100
31,107.25,107.3384,107.23,107.25,1775
32,107.25,107.32,107.25,107.32,400
33,107.27,107.27,107.27,107.27,100
34,107.23,107.23,107.23,107.23,100
35,107.25,107.25,107.21,107.21,400
36,107.25,107.25,107.25,107.25,100
37,107.25,107.28,107.24,107.24,600
38,107.26,107.28,107.26,107.28,400
39,107.26,107.3,107.26,107.29,1800
40,107.28,107.28,107.26,107.27,1000
41,107.33,107.33,107.265,107.27,900
42,107.35,107.36,107.34,107.35,3500
43,107.36,107.39,107.32,107.34,2600
44,107.35,107.365,107.35,107.365,258
45,107.38,107.38,107.38,107.38,200
46,107.36,107.37,107.33,107.37,1200
47,107.34,107.36,107.34,107.35,900
49,107.32,107.38,107.32,107.3429,2900
50,107.32,107.34,107.32,107.32,2000
51,107.33,107.35,107.32,107.32,800
52,107.32,107.3308,107.3,107.3308,1555
53,107.34,107.34,107.3001,107.3001,848
54,107.3463,107.3463,107.32,107.32,339
55,107.335,107.335,107.32,107.33,1600
56,107.32,107.345,107.31,107.33,800
57,107.32,107.32,107.28,107.32,3000
58,107.32,107.32,107.29,107.29,1000
59,107.32,107.32,107.31,107.32,500
60,107.32,107.32,107.32,107.32,100
61,107.34,107.34,107.34,107.34,200
62,107.37,107.37,107.36,107.36,300
64,107.365,107.375,107.35,107.36,1400
65,107.347,107.36,107.33,107.36,838
66,107.36,107.37,107.35,107.37,1000
68,107.4,107.4,107.39,107.39,300
69,107.39,107.41,107.39,107.41,200
70,107.41,107.41,107.41,107.41,100
72,107.39,107.4,107.38,107.39,500
73,107.35,107.37,107.35,107.37,900
74,107.35,107.35,107.35,107.35,300
75,107.34,107.34,107.34,107.34,300
76,107.35,107.35,107.34,107.34,1000
77,107.3483,107.35,107.3483,107.35,350
78,107.33,107.355,107.33,107.355,2000
81,107.34,107.34,107.33,107.33,200
82,107.33,107.34,107.32,107.32,900
83,107.33,107.35,107.32,107.33,1900
84,107.33,107.33,107.33,107.33,100
85,107.33,107.33,107.31,107.31,800
86,107.34,107.34,107.32,107.32,500
87,107.35,107.35,107.35,107.35,200
88,107.34,107.34,107.34,107.34,100
90,107.42,107.42,107.37,107.37,900
91,107.41,107.415,107.4,107.415,300
92,107.4,107.41,107.38,107.4,2767
93,107.39,107.39,107.39,107.39,150
94,107.35,107.4,107.35,107.39,2150
95,107.37,107.37,107.355,107.355,2454
96,107.4,107.42,107.385,107.39,700
97,107.43,107.43,107.4,107.4,600
98,107.44,107.44,107.42,107.42,700
99,107.45,107.45,107.4303,107.45,300
100,107.44,107.44,107.44,107.44,200
101,107.42,107.43,107.42,107.43,2300
102,107.41,107.42,107.38,107.4,1852
103,107.41,107.41,107.38,107.41,1700
104,107.41,107.41,107.41,107.41,100
105,107.4,107.41,107.39,107.41,701
106,107.41,107.42,107.39,107.41,1200
107,107.36,107.39,107.3575,107.39,1300
108,107.3698,107.37,107.36,107.37,451
110,107.34,107.34,107.34,107.34,158
111,107.36,107.36,107.32,107.32,1200
112,107.37,107.3724,107.36,107.37,1340
113,107.36,107.37,107.36,107.37,800
114,107.36,107.37,107.36,107.37,500
115,107.35,107.36,107.34,107.36,745
116,107.34,107.34,107.34,107.34,100
117,107.3,107.34,107.3,107.34,800
121,107.32,107.32,107.295,107.295,1000
122,107.31,107.33,107.3,107.32,800
123,107.305,107.32,107.305,107.31,600
124,107.29,107.295,107.29,107.295,300
125,107.29,107.29,107.29,107.29,100
126,107.32,107.32,107.28,107.31,1671
127,107.3,107.32,107.3,107.31,1300
128,107.3,107.3,107.29,107.3,400
129,107.3,107.3,107.27,107.27,700
131,107.2614,107.29,107.2614,107.29,1070
132,107.2394,107.2394,107.2394,107.2394,175
133,107.23,107.23,107.23,107.23,100
135,107.23,107.23,107.23,107.23,100
136,107.2,107.22,107.2,107.22,300
137,107.2,107.2,107.2,107.2,100
138,107.2,107.22,107.2,107.2,1800
139,107.2,107.2,107.17,107.19,800
141,107.15,107.19,107.14,107.19,2500
142,107.13,107.14,107.09,107.14,4638
143,107.11,107.12,107.09,107.11,4992
144,107.08,107.09,107.07,107.09,3200
145,107.06,107.09,107.06,107.08,6215
146,107.06,107.08,107.051,107.06,3765
147,107.06,107.06,107.06,107.06,600
148,107.06,107.0685,107.06,107.0685,650
149,107.05,107.05,107.04,107.05,1650
150,107.03,107.03,107.03,107.03,100
151,107.03,107.03,107.02,107.03,300
152,107.02,107.04,107.02,107.04,314
153,107.06,107.06,107.06,107.06,100
155,107.08,107.09,107.07,107.09,700
157,107.09,107.09,107.08,107.08,400
158,107.09,107.09,107.09,107.09,200
159,107.06,107.06,107.06,107.06,100
162,107.095,107.11,107.08,107.08,500
163,107.11,107.11,107.1,107.1,800
164,107.19,107.2,107.105,107.105,1000
165,107.13,107.19,107.13,107.19,1404
166,107.1,107.11,107.1,107.11,200
168,107.1,107.1,107.1,107.1,100
170,107.1,107.12,107.1,107.1,1427
171,107.06,107.06,107.06,107.06,100
172,106.95,107.05,106.95,107.05,1700
173,106.96,106.96,106.96,106.96,200
174,106.98,106.98,106.97,106.97,200
175,106.99,107,106.99,106.99,1000
176,107.01,107.01,107.01,107.01,100
178,107,107,107,107,100
179,106.968,106.968,106.968,106.968,100
180,106.94,106.94,106.94,106.94,100
181,106.85,106.955,106.85,106.955,1268
182,106.925,106.94,106.87,106.87,3849
183,106.94,106.94,106.94,106.94,400
185,106.91,106.94,106.91,106.94,673
187,106.9,106.92,106.9,106.9,300
188,106.93,106.93,106.89,106.89,500
189,106.89,106.89,106.89,106.89,100
190,106.91,106.91,106.91,106.91,100
192,106.94,106.94,106.93,106.93,500
194,106.91,106.95,106.91,106.95,1200
195,106.9,106.9,106.9,106.9,100
196,106.89,106.905,106.89,106.905,300
197,106.84,106.9,106.84,106.9,2988
198,106.875,106.875,106.875,106.875,107
201,106.89,106.89,106.89,106.89,200
203,106.9,106.92,106.89,106.89,600
205,106.92,106.92,106.885,106.885,376
207,106.97,106.97,106.94,106.94,300
208,106.97,106.97,106.97,106.97,100
209,106.97,106.98,106.97,106.97,1100
211,106.97,106.97,106.96,106.96,1373
212,106.99,106.99,106.99,106.99,200
213,106.98,107,106.98,106.99,700
218,106.97,106.99,106.97,106.97,300
219,106.96,106.96,106.96,106.96,300
222,106.99,106.99,106.95,106.95,400
223,106.98,106.99,106.98,106.99,300
225,106.99,107,106.96,106.98,2100
226,107,107,107,107,100
227,107.04,107.05,107.03,107.05,300
228,107.02,107.03,107.01,107.03,1100
231,107.03,107.03,107.03,107.03,200
233,107.04,107.04,107.02,107.02,300
234,107.05,107.05,107.03,107.04,900
237,107.1,107.1,107.05,107.05,1200
238,107.09,107.12,107.06,107.1051,1824
240,107.06,107.06,107.05,107.05,400
243,107.05,107.05,107.03,107.03,900
244,107.06,107.06,107.06,107.06,100
245,107.05,107.05,107.04,107.04,200
246,107.02,107.06,107.02,107.0245,400
249,107.05,107.05,107.0268,107.0268,600
251,107.01,107.01,107.01,107.01,200
253,107.04,107.04,107.02,107.02,2034
255,107.02,107.02,107.01,107.02,1000
256,106.98,106.98,106.98,106.98,200
257,106.97,107,106.97,106.99,1196
259,107,107,106.995,106.995,473
260,107,107,106.98,106.98,400
261,107,107,107,107,200
262,107,107.01,107,107.01,1449
263,107,107.01,107,107.01,200
264,107.03,107.04,107,107,900
265,107.02,107.04,107.02,107.04,300
266,107.0253,107.0253,107.0253,107.0253,100
267,107.03,107.04,107.03,107.04,200
268,107.03,107.03,107.03,107.03,200
269,107.03,107.03,107.03,107.03,500
270,107.01,107.04,107.01,107.04,900
271,107,107.02,107,107,300
272,107,107.02,107,107.02,1244
273,107.03,107.03,106.99,106.99,2007
278,107.03,107.03,107.01,107.02,900
279,107.02,107.02,107.02,107.02,100
280,107.07,107.07,107.0097,107.015,4074
281,107.02,107.045,107.02,107.04,700
282,107.04,107.04,107.04,107.04,100
283,107.04,107.07,107.04,107.07,600
286,107.05,107.06,107.03,107.06,800
287,107.06,107.06,107.04,107.04,400
288,107.06,107.06,107.06,107.06,400
290,107.02,107.07,107.02,107.07,2500
292,107.02,107.02,106.985,107.02,1100
293,107,107.02,107,107,300
294,107.04,107.04,106.98,106.98,200
295,107.02,107.05,107.01,107.02,800
296,107.06,107.06,107.0299,107.04,1736
300,107.055,107.07,107.04,107.06,1400
301,107.04,107.04,107.04,107.04,100
302,107.06,107.06,107.035,107.04,1300
303,107.07,107.07,107.05,107.0599,2688
304,107.08,107.08,107.06,107.06,732
306,107.08,107.1098,107.08,107.1098,312
307,107.07,107.08,107.04,107.08,1400
308,107.07,107.07,107.07,107.07,100
309,107.03,107.05,107.03,107.05,1000
312,107.06,107.06,107.06,107.06,300
313,107.0676,107.0676,107.0645,107.0645,614
315,107.07,107.07,107.06,107.06,200
316,107.04,107.07,107.03,107.065,1800
318,107.1,107.11,107.07,107.07,1000
319,107.115,107.115,107.115,107.115,200
320,107.11,107.11,107.1,107.1,600
321,107.11,107.11,107.09,107.09,700
323,107.14,107.14,107.12,107.12,400
324,107.15,107.15,107.12,107.13,1300
325,107.1301,107.1301,107.1301,107.1301,111
326,107.18,107.18,107.15,107.17,400
328,107.14,107.16,107.12,107.16,900
330,107.13,107.13,107.13,107.13,500
331,107.16,107.19,107.13,107.14,2584
332,107.17,107.17,107.17,107.17,100
336,107.16,107.19,107.16,107.19,200
337,107.16,107.1662,107.13,107.15,840
338,107.16,107.16,107.16,107.16,100
339,107.1438,107.15,107.13,107.15,1682
340,107.17,107.17,107.15,107.15,1200
341,107.17,107.17,107.165,107.165,200
342,107.16,107.16,107.14,107.15,1000
343,107.17,107.17,107.1523,107.1523,265
344,107.1387,107.1387,107.13,107.13,200
345,107.13,107.14,107.13,107.14,200
346,107.13,107.14,107.12,107.12,1100
347,107.1401,107.15,107.14,107.14,939
348,107.14,107.14,107.14,107.14,100
349,107.14,107.14,107.13,107.14,800
350,107.15,107.15,107.15,107.15,100
351,107.12,107.13,107.12,107.13,600
352,107.15,107.15,107.12,107.13,2500
353,107.14,107.14,107.13,107.13,600
354,107.13,107.13,107.11,107.12,1200
355,107.11,107.11,107.11,107.11,300
356,107.11,107.12,107.1,107.11,700
357,107.1,107.1,107.08,107.1,1300
358,107.1,107.1,107.07,107.07,200
359,107.08,107.08,107.08,107.08,744
360,107.09,107.1,107.08,107.08,2000
361,107.09,107.1,107.09,107.1,700
362,107.12,107.12,107.1,107.1,300
363,107.09,107.11,107.08,107.11,900
364,107.08,107.1,107.08,107.09,1400
365,107.12,107.12,107.11,107.11,500
366,107.12,107.12,107.11,107.11,1798
367,107.12,107.13,107.12,107.12,700
368,107.115,107.12,107.1,107.12,2162
369,107.11,107.12,107.1,107.12,1700
370,107.12,107.12,107.11,107.11,1650
371,107.185,107.21,107.14,107.14,2850
372,107.19,107.22,107.18,107.19,1694
373,107.19,107.19,107.17,107.19,1800
374,107.23,107.23,107.185,107.185,1700
375,107.14,107.25,107.14,107.23,5340
376,107.08,107.15,107.05,107.13,4355
377,107.07,107.09,107.06,107.09,1990
378,107.04,107.08,107.03,107.08,2400
379,107.045,107.06,107.03,107.03,2835
380,107.05,107.05,107.045,107.045,900
381,107.05,107.075,107.045,107.05,4200
382,107.055,107.06,107.05,107.05,2422
383,107.08,107.08,107.05,107.05,1600
384,107.065,107.07,107.05,107.07,3259
385,107.08,107.08,107.05,107.06,4483
386,107.11,107.12,107.065,107.09,5111
387,107.085,107.11,107.08,107.11,3150
388,107.09,107.09,107.08,107.085,5133
389,107.08,107.1,107.07,107.09,6851
390,107.12,107.13,107.075,107.075,17223
