EOG,EOG Resources,Energy,3,Oil & Gas Exploration & Production,51075116815,2869182
a1493904600,91.24,91.24,91.03,91.04,34079
1,90.8,91.23,90.72,91.12,12982
2,90.63,90.87,90.6,90.85,12220
3,90.5,90.8,90.5,90.7,10228
4,90.585,90.62,90.43,90.61,32068
5,90.29,90.45,90.27,90.42,5082
6,90.365,90.46,90.28,90.31,8450
7,90.15,90.34,90.1,90.34,18257
8,89.955,90.15,89.94,90.135,34137
9,89.715,89.93,89.715,89.93,19020
10,89.66,89.7195,89.61,89.71,16325
11,89.62,89.75,89.58,89.68,23989
12,89.64,89.69,89.51,89.62,6958
13,89.91,89.97,89.6463,89.6463,38552
14,89.93,89.99,89.85,89.91,13846
15,89.73,89.93,89.67,89.93,8085
16,89.7,89.75,89.68,89.69,9429
17,89.6,89.708,89.6,89.7,7147
18,89.58,89.65,89.54,89.5953,6232
19,89.47,89.67,89.47,89.56,6544
20,89.395,89.45,89.31,89.45,14026
21,89.41,89.53,89.36,89.43,6516
22,89.605,89.63,89.44,89.44,7368
23,89.59,89.67,89.535,89.57,10993
24,89.5625,89.61,89.46,89.61,7451
25,89.5,89.62,89.5,89.57,9324
26,89.59,89.6,89.48,89.48,4532
27,89.54,89.63,89.48,89.61,9683
28,89.6428,89.7,89.56,89.56,14381
29,89.53,89.61,89.53,89.61,3320
30,89.42,89.53,89.38,89.52,8700
31,89.49,89.54,89.41,89.46,18130
32,89.4825,89.54,89.38,89.53,11924
33,89.73,89.73,89.45,89.46,17017
34,89.72,89.77,89.65,89.74,7972
35,89.88,89.92,89.67,89.71,16216
36,89.9,89.94,89.85,89.89,13041
37,89.91,89.95,89.9,89.92,5900
38,89.91,89.94,89.9,89.93,3655
39,89.91,89.96,89.88,89.92,58295
40,89.8144,89.95,89.8144,89.89,8252
41,89.67,89.88,89.67,89.86,5426
42,89.81,89.81,89.645,89.67,4100
43,89.805,89.86,89.78,89.82,11366
44,89.9047,89.9199,89.775,89.8004,7216
45,89.74,89.9,89.7125,89.9,15586
46,89.73,89.8,89.66,89.7425,18058
47,89.7152,89.74,89.66,89.71,18357
48,89.76,89.76,89.66,89.69,4144
49,89.805,89.81,89.73,89.78,7622
50,89.79,89.8,89.7,89.8,14029
51,89.715,89.79,89.715,89.79,4346
52,89.76,89.83,89.71,89.72,16600
53,89.7575,89.87,89.75,89.7655,10037
54,89.84,89.89,89.77,89.77,4290
55,89.72,89.85,89.7,89.84,5801
56,89.78,89.8,89.65,89.71,14567
57,89.75,89.8025,89.75,89.78,2600
58,89.81,89.83,89.785,89.82,4450
59,89.83,89.83,89.81,89.8299,1400
60,89.78,89.84,89.78,89.84,2713
61,89.6,89.77,89.6,89.75,3051
62,89.71,89.71,89.65,89.66,5675
63,89.8,89.83,89.67,89.71,15350
64,89.96,89.96,89.8,89.8,13090
65,89.96,90.03,89.96,89.96,5832
66,89.98,90.03,89.91,89.95,6619
67,90,90.03,89.99,90.01,9883
68,89.96,89.99,89.93,89.99,4700
69,90,90.01,89.96,89.98,11444
70,90,90,89.97,90,11030
71,90.02,90.04,89.97,89.98,39469
72,90.005,90.04,89.96,90,8100
73,89.87,90.005,89.87,90.005,3608
74,89.835,89.88,89.78,89.87,8253
75,89.86,89.86,89.82,89.82,1600
76,89.92,89.92,89.85,89.88,5628
77,89.88,89.9076,89.87,89.89,4400
78,90,90.03,89.9,89.9,17700
79,90,90.02,89.98,90,11471
80,89.83,90.02,89.83,90.005,15843
81,89.59,89.81,89.59,89.81,6590
82,89.62,89.65,89.58,89.58,4597
83,89.63,89.69,89.63,89.66,3507
84,89.69,89.7,89.63,89.63,2734
85,89.54,89.6825,89.54,89.66,2400
86,89.544,89.6,89.51,89.53,7873
87,89.5,89.6,89.49,89.57,5799
88,89.5025,89.51,89.49,89.5,600
89,89.58,89.58,89.47,89.52,5813
90,89.72,89.74,89.6,89.6,8000
91,89.58,89.69,89.58,89.69,5258
92,89.63,89.66,89.55,89.5915,5427
93,89.58,89.61,89.56,89.6,2800
94,89.5625,89.6,89.55,89.59,4759
95,89.53,89.54,89.51,89.54,7438
96,89.5,89.569,89.4835,89.53,2811
97,89.5,89.5,89.42,89.48,3577
98,89.46,89.495,89.44,89.48,3607
99,89.4,89.44,89.4,89.44,1600
100,89.35,89.45,89.35,89.43,6139
101,89.321,89.35,89.28,89.35,5188
102,89.42,89.4315,89.31,89.32,5671
103,89.42,89.46,89.4,89.43,2000
104,89.53,89.53,89.43,89.43,4500
105,89.551,89.6,89.53,89.53,6040
106,89.47,89.57,89.465,89.57,6100
107,89.51,89.535,89.44,89.46,7656
108,89.5,89.504,89.4365,89.504,4511
109,89.48,89.53,89.48,89.5,7866
110,89.5,89.51,89.47,89.47,3938
111,89.4537,89.51,89.45,89.51,3505
112,89.49,89.5,89.45,89.45,3978
113,89.5499,89.5499,89.5,89.5,900
114,89.56,89.58,89.49,89.51,11520
115,89.7,89.7,89.5,89.566,12450
116,89.66,89.704,89.66,89.682,3851
117,89.52,89.65,89.52,89.65,3398
118,89.5,89.56,89.479,89.48,5700
119,89.37,89.48,89.31,89.48,14285
120,89.43,89.47,89.35,89.38,6500
121,89.4725,89.48,89.44,89.44,6594
122,89.39,89.52,89.39,89.52,2507
123,89.42,89.43,89.39,89.4068,4300
124,89.36,89.46,89.36,89.44,7028
125,89.43,89.43,89.35,89.36,10491
126,89.36,89.47,89.36,89.46,6250
127,89.37,89.41,89.36,89.4,5639
128,89.27,89.36,89.27,89.36,5375
129,89.2847,89.33,89.28,89.29,4466
130,89.28,89.35,89.18,89.285,33203
131,89.34,89.36,89.24,89.29,17609
132,89.23,89.33,89.21,89.33,6198
133,89.13,89.23,89.12,89.22,12288
134,89.15,89.21,89.15,89.16,7454
135,89.09,89.14,89.09,89.14,8333
136,88.95,89.14,88.95,89.1,25299
137,89.0625,89.07,88.94,88.95,12909
138,88.98,89.06,88.98,89.06,5032
139,88.92,89,88.86,88.9828,20451
140,88.9,88.92,88.87,88.9,9794
141,88.96,88.98,88.89,88.9,10911
142,88.915,88.96,88.9,88.96,16076
143,88.89,88.94,88.87,88.9,16909
144,88.86,88.94,88.85,88.91,13470
145,88.81,88.89,88.73,88.89,21033
146,88.82,88.87,88.81,88.81,9437
147,88.65,88.83,88.6,88.83,13528
148,88.7,88.72,88.61,88.65,14857
149,88.64,88.72,88.6101,88.68,6978
150,88.71,88.72,88.6352,88.6352,8825
151,88.68,88.7299,88.67,88.7,12911
152,88.63,88.77,88.63,88.7,10658
153,88.73,88.76,88.65,88.65,13814
154,88.84,88.86,88.74,88.74,9801
155,88.6625,88.89,88.6625,88.85,12575
156,88.71,88.77,88.68,88.68,12749
157,88.75,88.78,88.69,88.73,5667
158,88.7116,88.81,88.68,88.78,15734
159,88.65,88.68,88.61,88.68,6111
160,88.81,88.82,88.66,88.66,9725
161,88.91,88.94,88.81,88.82,2745
162,88.85,88.97,88.85,88.94,10677
163,88.67,88.88,88.6,88.87,6616
164,88.6,88.78,88.6,88.68,7220
165,88.5,88.65,88.5,88.58,7539
166,88.66,88.66,88.56,88.56,7759
167,88.63,88.68,88.61,88.66,6212
168,88.7,88.74,88.6693,88.68,7253
169,88.71,88.74,88.62,88.7,8200
170,88.77,88.79,88.67,88.75,10610
171,88.76,88.83,88.75,88.79,8065
172,88.9,88.9,88.73,88.7842,4892
173,88.75,88.89,88.75,88.89,4950
174,88.8,88.84,88.79,88.8,3259
175,88.8274,88.85,88.8,88.825,21712
176,88.76,88.86,88.76,88.84,28872
177,88.85,88.93,88.82,88.82,3753
178,88.79,88.85,88.77,88.84,12630
179,88.88,88.88,88.81,88.82,5064
180,88.79,88.9,88.79,88.88,9261
181,88.82,88.84,88.81,88.81,3900
182,88.8599,88.88,88.83,88.84,4610
183,88.65,88.86,88.65,88.86,22623
184,88.77,88.77,88.66,88.66,12711
185,88.72,88.81,88.61,88.79,24519
186,88.7,88.74,88.67,88.74,6350
187,88.7521,88.78,88.69,88.71,2803
188,88.83,88.84,88.73,88.77,6872
189,88.83,88.85,88.82,88.835,2498
190,88.725,88.83,88.69,88.83,16993
191,88.66,88.73,88.64,88.73,12321
192,88.64,88.69,88.64,88.69,3980
193,88.61,88.67,88.59,88.64,10353
194,88.56,88.68,88.56,88.615,8918
195,88.54,88.62,88.54,88.58,7724
196,88.545,88.595,88.535,88.55,9350
197,88.515,88.61,88.5,88.56,13172
198,88.41,88.53,88.41,88.515,18450
199,88.325,88.43,88.3,88.39,19071
200,88.42,88.43,88.31,88.34,35266
201,88.37,88.41,88.37,88.4,13450
202,88.4,88.41,88.37,88.41,9921
203,88.41,88.41,88.37,88.4,10675
204,88.439,88.44,88.38,88.405,10695
205,88.4,88.45,88.38,88.44,22102
206,88.4,88.44,88.4,88.4,13141
207,88.42,88.44,88.39,88.4,12139
208,88.54,88.54,88.4,88.4,15382
209,88.65,88.65,88.56,88.5796,6964
210,88.69,88.7,88.59,88.65,7962
211,88.77,88.8,88.7,88.71,7834
212,88.76,88.83,88.7,88.79,12572
213,88.75,88.79,88.75,88.78,2200
214,88.77,88.83,88.76,88.76,5629
215,88.8,88.81,88.75,88.77,4550
216,88.78,88.83,88.76,88.82,4325
217,88.73,88.8,88.69,88.77,5800
218,88.765,88.8,88.74,88.76,3250
219,88.73,88.7599,88.73,88.75,4504
220,88.64,88.71,88.61,88.71,2900
221,88.64,88.65,88.64,88.6477,975
222,88.68,88.68,88.63,88.66,5000
223,88.7,88.71,88.66,88.666,1195
224,88.63,88.72,88.59,88.7015,11040
225,88.67,88.67,88.62,88.65,3600
226,88.58,88.69,88.56,88.67,6395
227,88.53,88.58,88.53,88.55,2050
228,88.54,88.58,88.51,88.54,7725
229,88.5234,88.56,88.52,88.54,1883
230,88.6,88.6,88.48,88.5,13053
231,88.57,88.58,88.54,88.58,3100
232,88.62,88.62,88.55,88.55,4261
233,88.55,88.61,88.55,88.61,2400
234,88.569,88.569,88.53,88.54,3241
235,88.489,88.57,88.489,88.55,6963
236,88.5,88.5,88.47,88.49,1172
237,88.51,88.53,88.5,88.52,2142
238,88.5,88.54,88.5,88.54,1713
239,88.51,88.51,88.47,88.5,5752
240,88.33,88.495,88.33,88.495,8886
241,88.33,88.38,88.33,88.33,5994
242,88.24,88.32,88.2,88.31,14817
243,88.29,88.29,88.23,88.25,7609
244,88.26,88.32,88.26,88.32,8171
245,88.22,88.28,88.21,88.26,3463
246,88.34,88.36,88.22,88.22,6896
247,88.48,88.48,88.36,88.36,4275
248,88.41,88.51,88.41,88.48,14836
249,88.385,88.41,88.37,88.41,3477
250,88.38,88.4,88.33,88.37,7900
251,88.41,88.41,88.36,88.37,2704
252,88.4199,88.42,88.39,88.4045,5241
253,88.33,88.42,88.32,88.42,4425
254,88.4,88.42,88.33,88.33,1900
255,88.37,88.41,88.37,88.41,1200
256,88.31,88.37,88.31,88.37,3577
257,88.29,88.3286,88.29,88.3286,3541
258,88.43,88.44,88.34,88.34,5407
259,88.57,88.57,88.44,88.45,18454
260,88.655,88.655,88.58,88.58,8200
261,88.6441,88.66,88.59,88.655,8690
262,88.6,88.64,88.59,88.63,5000
263,88.6,88.65,88.57,88.61,12855
264,88.56,88.6148,88.56,88.6148,2115
265,88.62,88.63,88.57,88.57,6343
266,88.62,88.65,88.58,88.65,3507
267,88.72,88.72,88.6,88.6,14212
268,88.7,88.72,88.68,88.715,7103
269,88.63,88.691,88.61,88.69,6002
270,88.61,88.66,88.61,88.65,9989
271,88.67,88.698,88.6,88.605,8301
272,88.62,88.66,88.6,88.65,9070
273,88.66,88.67,88.6,88.62,10500
274,88.66,88.68,88.6,88.68,6611
275,88.63,88.7,88.6,88.65,4252
276,88.61,88.63,88.56,88.63,7779
277,88.64,88.64,88.57,88.63,12137
278,88.62,88.68,88.61,88.655,3200
279,88.53,88.63,88.53,88.62,12613
280,88.6,88.63,88.57,88.582,62178
281,88.58,88.643,88.57,88.643,6066
282,88.46,88.57,88.43,88.57,3800
283,88.52,88.52,88.44,88.45,6317
284,88.53,88.56,88.43,88.47,19867
285,88.52,88.65,88.52,88.57,11800
286,88.6,88.62,88.52,88.53,5000
287,88.6,88.64,88.59,88.6,10727
288,88.65,88.69,88.6,88.6,11843
289,88.6,88.68,88.6,88.66,7935
290,88.52,88.63,88.52,88.58,3452
291,88.52,88.532,88.48,88.532,3464
292,88.5763,88.63,88.47,88.5,4229
293,88.5,88.58,88.47,88.56,3150
294,88.58,88.64,88.48,88.48,8433
295,88.58,88.62,88.53,88.6,10220
296,88.56,88.58,88.53,88.55,4100
297,88.6,88.63,88.5697,88.5697,18747
298,88.6,88.68,88.58,88.62,27868
299,88.62,88.68,88.59,88.6,29618
300,88.68,88.7,88.59,88.6,29358
301,88.7501,88.8,88.66,88.68,23721
302,88.7,88.78,88.67,88.765,22003
303,88.69,88.76,88.69,88.69,16415
304,88.67,88.73,88.66,88.71,12136
305,88.69,88.73,88.66,88.66,19195
306,88.64,88.71,88.61,88.7,17722
307,88.497,88.65,88.47,88.6499,25430
308,88.4,88.4868,88.4,88.46,14873
309,88.38,88.43,88.36,88.42,7926
310,88.48,88.48,88.38,88.39,22558
311,88.56,88.62,88.49,88.49,15037
312,88.58,88.6,88.54,88.57,7349
313,88.57,88.6,88.52,88.585,11376
314,88.5624,88.58,88.55,88.575,12320
315,88.57,88.57,88.535,88.5635,5974
316,88.66,88.67,88.565,88.565,10620
317,88.78,88.78,88.65,88.66,6317
318,88.79,88.84,88.76,88.78,7510
319,88.74,88.8,88.73,88.79,6400
320,88.7491,88.7575,88.7165,88.74,5710
321,88.68,88.74,88.68,88.74,4096
322,88.695,88.73,88.695,88.7,6056
323,88.7,88.73,88.67,88.71,7139
324,88.74,88.78,88.71,88.74,14108
325,88.65,88.76,88.65,88.7467,7100
326,88.65,88.6799,88.63,88.67,5250
327,88.62,88.66,88.62,88.66,5150
328,88.59,88.64,88.55,88.63,16108
329,88.59,88.62,88.58,88.58,7244
330,88.54,88.62,88.5,88.62,11445
331,88.64,88.64,88.54,88.545,10985
332,88.62,88.67,88.59,88.65,7006
333,88.615,88.63,88.56,88.625,10321
334,88.6975,88.7,88.62,88.63,15711
335,88.73,88.78,88.7,88.7,13889
336,88.78,88.7801,88.73,88.74,7800
337,88.76,88.78,88.71,88.78,11407
338,88.82,88.83,88.7613,88.79,7411
339,88.85,88.85,88.79,88.8275,8304
340,88.7789,88.84,88.77,88.83,14468
341,88.75,88.77,88.72,88.76,10504
342,88.84,88.86,88.76,88.76,8216
343,88.84,88.85,88.8201,88.83,1836
344,88.79,88.885,88.79,88.85,15268
345,88.9,88.92,88.79,88.8,7392
346,88.93,88.94,88.85,88.91,6917
347,88.96,88.9746,88.9184,88.93,8220
348,88.97,88.9932,88.95,88.97,7803
349,88.9,88.96,88.89,88.96,7311
350,88.88,88.9,88.88,88.9,3707
351,88.8875,88.89,88.86,88.86,10328
352,88.825,88.9,88.82,88.89,6763
353,88.82,88.84,88.76,88.84,12260
354,88.85,88.85,88.81,88.83,6450
355,88.8575,88.88,88.85,88.85,14073
356,88.865,88.87,88.84,88.855,9184
357,88.83,88.87,88.81,88.87,5182
358,88.74,88.82,88.74,88.82,5687
359,88.79,88.79,88.74,88.74,3723
360,88.7,88.76,88.7,88.76,7363
361,88.73,88.75,88.68,88.69,9113
362,88.72,88.74,88.69,88.74,7749
363,88.7,88.77,88.7,88.7233,14064
364,88.65,88.7,88.63,88.7,10614
365,88.57,88.6537,88.56,88.65,11295
366,88.52,88.63,88.52,88.57,13520
367,88.49,88.52,88.45,88.52,10516
368,88.59,88.59,88.48,88.5,6586
369,88.59,88.64,88.58,88.61,17719
370,88.605,88.63,88.56,88.59,15102
371,88.46,88.6,88.46,88.6,25138
372,88.43,88.46,88.39,88.46,11082
373,88.34,88.42,88.34,88.42,14616
374,88.43,88.43,88.34,88.34,10392
375,88.47,88.49,88.39,88.42,24248
376,88.42,88.47,88.42,88.47,22770
377,88.45,88.47,88.42,88.42,11981
378,88.45,88.48,88.41,88.45,25803
379,88.48,88.48,88.42,88.445,20086
380,88.48,88.52,88.47,88.49,29183
381,88.66,88.66,88.49,88.49,25161
382,88.68,88.69,88.62,88.66,44735
383,88.67,88.71,88.66,88.68,28455
384,88.7,88.71,88.66,88.68,20959
385,88.65,88.72,88.65,88.7,24137
386,88.61,88.66,88.6,88.65,32684
387,88.64,88.67,88.6,88.6,25497
388,88.55,88.645,88.54,88.64,24861
389,88.57,88.58,88.54,88.55,28976
390,88.61,88.62,88.54,88.58,53889
