PPG,PPG Industries,Materials,8,Specialty Chemicals,28084037145,1371621
a1493904600,109.33,109.33,109.33,109.33,8263
1,109.66,109.66,109.66,109.66,100
3,109.39,109.39,109.39,109.39,100
4,109.385,109.385,109.33,109.36,400
5,109.315,109.39,109.315,109.33,900
6,109.38,109.38,109.33,109.34,300
7,109.36,109.36,109.36,109.36,100
8,109.33,109.46,109.22,109.38,9050
9,109.34,109.34,109.34,109.34,100
10,109.315,109.47,109.29,109.29,2200
11,109.36,109.38,109.33,109.37,1193
12,109.4,109.4,109.37,109.37,300
13,109.3996,109.43,109.38,109.38,692
14,109.42,109.5,109.4,109.4,900
15,109.38,109.4,109.35,109.4,600
16,109.4,109.4,109.315,109.4,400
17,109.39,109.39,109.39,109.39,100
18,109.44,109.44,109.335,109.36,1000
19,109.35,109.39,109.35,109.38,1350
20,109.31,109.36,109.31,109.33,6683
21,109.37,109.39,109.29,109.33,5187
22,109.39,109.41,109.31,109.31,1858
23,109.34,109.35,109.31,109.32,1459
24,109.31,109.33,109.28,109.33,1195
25,109.33,109.4,109.26,109.26,2208
26,109.38,109.38,109.38,109.38,200
27,109.4,109.4,109.3025,109.34,1188
28,109.45,109.45,109.3725,109.43,793
29,109.45,109.49,109.45,109.49,400
30,109.41,109.42,109.36,109.41,3540
31,109.42,109.42,109.42,109.42,100
32,109.44,109.47,109.44,109.44,800
33,109.45,109.45,109.45,109.45,200
34,109.53,109.53,109.46,109.49,2902
35,109.52,109.54,109.5,109.535,3691
36,109.62,109.64,109.535,109.54,16030
37,109.55,109.62,109.52,109.62,5051
38,109.535,109.55,109.52,109.52,500
39,109.58,109.58,109.535,109.55,900
40,109.56,109.57,109.5301,109.5301,531
41,109.53,109.55,109.5,109.55,4171
42,109.45,109.5,109.45,109.5,4600
43,109.49,109.49,109.44,109.44,600
44,109.49,109.54,109.445,109.49,2421
45,109.48,109.48,109.44,109.44,1300
46,109.44,109.48,109.43,109.43,2200
47,109.415,109.435,109.4,109.41,500
48,109.4,109.44,109.38,109.38,700
49,109.39,109.43,109.39,109.39,400
50,109.395,109.42,109.39,109.395,900
51,109.445,109.47,109.42,109.44,2700
52,109.45,109.45,109.45,109.45,200
53,109.47,109.49,109.46,109.46,500
54,109.505,109.55,109.48,109.51,4383
55,109.525,109.59,109.49,109.5,9500
56,109.56,109.57,109.5,109.52,6270
57,109.515,109.57,109.515,109.53,600
58,109.5,109.57,109.5,109.51,3408
59,109.58,109.58,109.5,109.5,6000
60,109.575,109.59,109.55,109.59,400
61,109.52,109.59,109.5,109.59,2600
62,109.53,109.54,109.5,109.5,600
63,109.58,109.59,109.48,109.51,9600
64,109.57,109.58,109.55,109.58,1000
65,109.51,109.57,109.51,109.53,1396
66,109.52,109.53,109.5,109.51,2300
67,109.52,109.56,109.5,109.51,7222
68,109.53,109.55,109.52,109.55,800
69,109.52,109.52,109.52,109.52,100
70,109.545,109.56,109.5,109.5,4300
71,109.57,109.58,109.57,109.57,800
72,109.51,109.59,109.51,109.59,3700
73,109.51,109.51,109.49,109.5,400
74,109.495,109.51,109.49,109.5,1607
75,109.53,109.53,109.5,109.5,2600
76,109.57,109.58,109.4892,109.5,5895
77,109.54,109.57,109.52,109.57,1400
78,109.53,109.555,109.53,109.53,3308
79,109.53,109.53,109.5,109.52,5504
80,109.5,109.53,109.5,109.53,3862
81,109.5,109.51,109.5,109.51,700
82,109.48,109.52,109.48,109.52,1619
83,109.52,109.52,109.48,109.48,700
84,109.51,109.56,109.51,109.52,5322
85,109.5,109.51,109.485,109.5,3965
86,109.498,109.51,109.49,109.49,3790
87,109.545,109.545,109.48,109.5,7929
88,109.63,109.63,109.54,109.54,2400
89,109.66,109.66,109.62,109.645,1700
90,109.61,109.65,109.6,109.65,3500
91,109.585,109.6,109.585,109.6,900
92,109.53,109.55,109.53,109.55,300
93,109.53,109.56,109.53,109.56,1900
94,109.5,109.53,109.5,109.53,1800
95,109.51,109.54,109.51,109.52,1300
96,109.55,109.55,109.5,109.5,5100
97,109.5,109.54,109.49,109.53,1200
98,109.52,109.53,109.5,109.5,701
99,109.52,109.52,109.51,109.51,200
100,109.52,109.52,109.5,109.51,1300
101,109.52,109.54,109.52,109.54,400
102,109.54,109.54,109.52,109.52,700
103,109.555,109.56,109.54,109.54,600
104,109.56,109.59,109.555,109.555,600
105,109.5378,109.59,109.5378,109.575,2231
106,109.55,109.55,109.55,109.55,200
107,109.57,109.59,109.55,109.57,1500
108,109.57,109.59,109.57,109.57,800
109,109.59,109.6117,109.59,109.6,2498
110,109.605,109.605,109.58,109.58,785
111,109.64,109.64,109.62,109.62,700
112,109.6537,109.6537,109.65,109.65,444
113,109.66,109.685,109.66,109.68,1602
114,109.665,109.665,109.65,109.65,103200
115,109.58,109.65,109.56,109.65,4331
116,109.6121,109.6121,109.61,109.61,1701
117,109.65,109.66,109.64,109.65,1400
118,109.68,109.68,109.64,109.64,900
119,109.63,109.67,109.63,109.66,1034
121,109.72,109.72,109.66,109.67,1300
122,109.73,109.755,109.73,109.75,2157
123,109.71,109.71,109.7,109.71,600
124,109.74,109.74,109.705,109.705,486
125,109.735,109.735,109.735,109.735,100
126,109.75,109.75,109.75,109.75,100
127,109.81,109.82,109.77,109.77,698
128,109.79,109.81,109.79,109.81,500
130,109.89,109.894,109.78,109.78,2607
131,109.93,109.93,109.86,109.88,5248
132,109.91,109.94,109.9,109.92,600
134,109.89,109.895,109.88,109.89,2124
135,109.92,109.92,109.9,109.9,500
136,109.95,109.98,109.9284,109.935,7617
137,109.99,110.01,109.955,109.955,2100
138,110.0499,110.0499,110.01,110.01,1863
139,110.01,110.03,109.98,110.03,3100
140,110.05,110.05,110.01,110.01,900
141,110.025,110.06,110.02,110.05,1308
142,110.03,110.03,110.01,110.03,509
143,110.04,110.04,110.02,110.02,400
144,110.03,110.04,110.025,110.025,600
145,110.005,110.03,110,110.03,2400
146,110,110.01,109.97,110.01,2615
147,109.94,110,109.8201,109.99,7699
149,109.98,109.98,109.94,109.94,1000
150,109.99,110,109.98,109.98,1632
151,109.975,110,109.975,109.99,1200
152,110,110,109.97,109.975,1000
153,110.04,110.04,110.02,110.02,2060
154,110.11,110.11,110.07,110.07,1300
155,110.09,110.15,110.07,110.12,9350
156,110.06,110.09,110.06,110.09,1463
157,110.03,110.05,110.03,110.03,900
158,110.08,110.08,110.03,110.03,2418
159,110.09,110.11,110.07,110.1,2287
160,110.075,110.09,110.06,110.06,2056
161,110.117,110.117,110.06,110.075,6189
162,110.07,110.13,110.07,110.11,3308
163,110.05,110.07,110.05,110.07,5700
164,110.1,110.1,110.05,110.055,2610
165,110.025,110.11,110.025,110.1,2243
166,110.04,110.05,110.035,110.035,1831
167,110.03,110.04,110.03,110.04,300
168,110.045,110.045,110.03,110.03,1121
169,110.06,110.09,110.02,110.03,5300
170,110,110.07,109.99,110.05,1332
171,110.06,110.06,110.005,110.01,1387
172,110.07,110.07,110.045,110.045,829
173,110.07,110.09,110.05,110.07,908
174,110.05,110.05,110.05,110.05,100
175,110.04,110.07,110.04,110.045,1663
176,110.09,110.09,110.05,110.05,2000
177,110.085,110.085,110.06,110.06,837
178,110.14,110.14,110.13,110.13,749
179,110.1,110.14,110.1,110.14,400
180,110.11,110.11,110.11,110.11,100
181,110.1,110.11,110.07,110.08,3900
182,110.08,110.13,110.07,110.105,2593
183,110.1,110.13,110.08,110.08,500
184,110.14,110.16,110.1,110.105,3200
185,110.13,110.16,110.13,110.13,500
186,110.13,110.13,110.08,110.11,2201
187,110.1,110.1,110.1,110.1,200
188,110.11,110.12,110.1,110.12,400
189,110.1,110.13,110.0899,110.0899,1650
190,110.11,110.11,110.11,110.11,100
191,110.12,110.12,110.12,110.12,300
192,110.137,110.14,110.13,110.14,605
193,110.14,110.15,110.14,110.15,266
194,110.14,110.17,110.14,110.1417,1491
195,110.15,110.15,110.13,110.13,921
196,110.12,110.15,110.12,110.14,3578
197,110.15,110.15,110.12,110.125,3136
198,110.19,110.21,110.16,110.16,2500
199,110.24,110.25,110.21,110.21,1460
200,110.25,110.26,110.24,110.24,400
201,110.24,110.27,110.24,110.265,1765
202,110.24,110.24,110.24,110.24,100
203,110.28,110.28,110.26,110.26,500
204,110.27,110.27,110.27,110.27,200
205,110.27,110.27,110.27,110.27,200
206,110.26,110.29,110.25,110.29,2600
207,110.26,110.28,110.26,110.28,1600
209,110.28,110.28,110.25,110.265,800
210,110.24,110.24,110.24,110.24,100
211,110.24,110.25,110.23,110.24,500
212,110.24,110.27,110.24,110.25,2900
213,110.24,110.25,110.24,110.24,500
215,110.23,110.25,110.22,110.22,500
216,110.22,110.22,110.21,110.22,900
217,110.2001,110.21,110.2,110.21,1018
218,110.1987,110.2079,110.1987,110.2079,590
219,110.18,110.2,110.18,110.2,800
220,110.16,110.17,110.16,110.17,1500
221,110.2,110.2,110.18,110.18,1100
223,110.2,110.2,110.19,110.19,900
224,110.225,110.235,110.19,110.19,2200
225,110.2199,110.2199,110.2,110.2,880
226,110.2172,110.2172,110.2172,110.2172,100
227,110.2,110.21,110.2,110.2,560
228,110.2,110.2,110.2,110.2,400
230,110.15,110.18,110.13,110.18,300
232,110.1415,110.1415,110.1415,110.1415,100
233,110.155,110.155,110.155,110.155,100
234,110.155,110.155,110.15,110.15,306
235,110.13,110.13,110.13,110.13,200
237,110.15,110.15,110.14,110.15,400
238,110.16,110.16,110.16,110.16,200
239,110.21,110.21,110.17,110.17,1896
240,110.17,110.17,110.16,110.16,400
242,110.1,110.15,110.1,110.15,1000
243,110.12,110.14,110.12,110.14,438
244,110.13,110.13,110.1,110.12,2500
245,110.15,110.15,110.11,110.11,300
246,110.13,110.13,110.13,110.13,100
247,110.1165,110.1165,110.1,110.1,342
248,110.1,110.1,110.1,110.1,100
249,110.16,110.16,110.12,110.12,200
250,110.18,110.18,110.18,110.18,100
251,110.16,110.16,110.16,110.16,200
253,110.1,110.1,110.1,110.1,300
254,110.09,110.16,110.09,110.09,8421
255,110.03,110.085,110.03,110.085,1500
256,110.03,110.03,110.02,110.03,1787
257,110.03,110.04,110.01,110.01,1100
258,110.01,110.03,110,110.0101,2380
259,110.07,110.07,110.01,110.01,1400
260,110.09,110.1,110.06,110.07,1400
261,110.03,110.095,110.03,110.095,774
262,110.04,110.08,110.01,110.07,1828
263,109.96,110.01,109.96,110.01,500
264,110.013,110.013,109.96,109.98,900
265,110.01,110.02,109.996,110.02,500
266,110,110.04,110,110.02,3300
267,110.03,110.03,109.9973,109.9973,3105
268,110.02,110.02,110,110.02,300
269,109.97,110.015,109.97,110.015,896
270,109.96,109.98,109.96,109.98,700
271,110.025,110.025,109.965,109.965,5000
272,110.06,110.06,110,110.045,2722
273,110.045,110.045,110.045,110.045,100
274,110.02,110.05,110.02,110.045,3666
275,110.01,110.04,109.98,110.02,8300
276,109.99,110.02,109.99,109.99,800
277,109.99,110.03,109.99,109.99,1400
278,109.95,109.99,109.95,109.99,700
279,109.92,109.95,109.92,109.95,800
280,109.91,109.9496,109.91,109.9496,631
281,109.9,109.92,109.88,109.92,900
282,109.9175,109.92,109.89,109.905,1300
283,109.92,109.92,109.91,109.92,900
284,109.93,109.93,109.92,109.92,857
285,109.94,109.94,109.93,109.93,600
286,109.96,109.96,109.94,109.94,300
287,109.94,109.975,109.94,109.96,1100
288,109.89,109.92,109.89,109.92,1200
289,109.86,109.88,109.86,109.88,1066
290,109.82,109.85,109.82,109.85,400
291,109.74,109.81,109.74,109.81,1200
292,109.73,109.73,109.73,109.73,200
293,109.82,109.83,109.73,109.73,5733
294,109.88,109.88,109.83,109.83,650
295,109.81,109.87,109.78,109.86,1300
296,109.76,109.7835,109.76,109.7835,800
297,109.775,109.8,109.75,109.78,1217
298,109.805,109.81,109.7825,109.7825,1000
300,109.79,109.8111,109.79,109.8111,600
301,109.82,109.83,109.785,109.8,1600
302,109.825,109.8399,109.8,109.8,427
303,109.81,109.83,109.81,109.81,500
304,109.8,109.81,109.8,109.81,600
305,109.76,109.8102,109.76,109.8,2431
306,109.76,109.765,109.75,109.76,1100
307,109.75,109.78,109.75,109.76,2400
308,109.74,109.76,109.73,109.74,800
309,109.74,109.74,109.72,109.723,500
310,109.78,109.78,109.72,109.749,2250
311,109.77,109.79,109.77,109.7707,1060
312,109.84,109.84,109.78,109.78,1300
313,109.81,109.84,109.81,109.84,1900
314,109.79,109.81,109.75,109.81,20100
315,109.79,109.8,109.78,109.7935,1934
316,109.8,109.8,109.8,109.8,1198
317,109.83,109.84,109.82,109.83,800
318,109.8283,109.83,109.82,109.83,1686
319,109.8396,109.8396,109.8396,109.8396,173
320,109.8,109.8,109.8,109.8,200
321,109.77,109.8,109.77,109.79,1600
322,109.7575,109.78,109.7575,109.77,901
323,109.74,109.76,109.74,109.76,1500
324,109.75,109.76,109.72,109.735,1630
325,109.73,109.73,109.73,109.73,100
326,109.74,109.74,109.73,109.7301,800
327,109.71,109.75,109.71,109.73,1453
328,109.64,109.7,109.64,109.7,2500
329,109.64,109.6422,109.63,109.63,450
330,109.63,109.64,109.63,109.63,600
331,109.615,109.615,109.61,109.61,500
332,109.65,109.66,109.61,109.61,4951
333,109.61,109.64,109.61,109.64,2202
334,109.61,109.635,109.61,109.62,2800
335,109.63,109.64,109.59,109.62,5789
336,109.66,109.66,109.61,109.63,2826
337,109.68,109.68,109.65,109.66,1600
338,109.68,109.7,109.68,109.7,2038
339,109.67,109.69,109.67,109.69,600
340,109.65,109.67,109.65,109.67,1100
341,109.61,109.655,109.6,109.65,3200
342,109.6,109.62,109.6,109.6,1212
343,109.6,109.62,109.6,109.62,929
344,109.6,109.61,109.6,109.6,2300
345,109.61,109.61,109.6,109.61,900
346,109.5376,109.6,109.53,109.6,2018
347,109.59,109.59,109.53,109.53,3706
348,109.585,109.6,109.58,109.6,1600
349,109.6,109.62,109.59,109.59,2000
350,109.57,109.59,109.56,109.59,1372
351,109.55,109.57,109.55,109.57,1200
352,109.55,109.57,109.55,109.56,1016
353,109.53,109.55,109.53,109.55,1270
354,109.52,109.52,109.52,109.52,300
355,109.5,109.52,109.5,109.52,1200
356,109.53,109.53,109.5,109.51,2362
357,109.48,109.525,109.48,109.52,1500
358,109.475,109.475,109.46,109.47,1000
359,109.44,109.46,109.42,109.46,2000
360,109.46,109.46,109.44,109.44,3029
361,109.47,109.48,109.46,109.46,3818
362,109.46,109.48,109.46,109.47,2219
363,109.48,109.48,109.45,109.45,3211
364,109.52,109.52,109.48,109.48,1658
365,109.505,109.53,109.5,109.53,2201
366,109.515,109.525,109.51,109.51,2600
367,109.5,109.52,109.49,109.51,1300
368,109.53,109.54,109.5,109.505,3440
369,109.6,109.6,109.55,109.55,2400
370,109.635,109.64,109.59,109.59,4700
371,109.7,109.7,109.63,109.63,6600
372,109.745,109.75,109.7,109.7,3550
373,109.755,109.76,109.73,109.74,6050
374,109.74,109.75,109.72,109.75,1751
375,109.74,109.78,109.73,109.73,9916
376,109.78,109.78,109.75,109.75,6089
377,109.82,109.82,109.79,109.79,1500
378,109.795,109.81,109.79,109.81,6098
379,109.81,109.81,109.79,109.8,6658
380,109.8,109.81,109.8,109.8043,2408
381,109.83,109.83,109.79,109.8,4905
382,109.875,109.875,109.8201,109.8201,6554
383,109.9,109.9,109.87,109.88,2670
384,109.88,109.92,109.87,109.9,7645
385,109.92,109.93,109.89,109.89,4646
386,109.91,109.94,109.9,109.92,4505
387,109.86,109.91,109.86,109.91,3356
388,109.87,109.88,109.86,109.86,5917
389,109.89,109.9,109.86,109.88,9381
390,109.89,109.9,109.88,109.89,7892
