EOG,EOG Resources,Energy,3,Oil & Gas Exploration & Production,53293425251,3218779
a1501680660,92.57,92.63,92.57,92.62,700
1,93.1,93.1,92.56,92.82,1665
2,92.475,93,92.19,93,65999
3,92.06,92.57,92.01,92.53,60758
4,92.36,92.48,92.05,92.1537,26420
5,92.87,92.93,92.325,92.36,28837
6,92.35,92.97,92.35,92.94,14280
7,92.42,92.54,92.29,92.39,23616
8,92.375,92.46,92.27,92.4001,47919
9,92.32,92.375,92.11,92.375,22796
10,92.4,92.44,92.3,92.35,33851
11,92.66,92.715,92.365,92.365,35087
12,92.575,92.7,92.501,92.7,29474
13,92.645,92.68,92.55,92.575,8850
14,92,92.66,92,92.6373,28137
15,92.029,92.2499,91.97,92,46115
16,91.805,92.07,91.715,91.99,40296
17,91.875,91.9,91.79,91.81,9220
18,91.879,91.92,91.79,91.875,6600
19,91.49,91.855,91.49,91.82,17298
20,91.675,91.76,91.4942,91.53,12991
21,91.81,91.81,91.69,91.73,7935
22,91.87,91.95,91.81,91.81,14467
23,91.72,91.85,91.72,91.85,3400
24,91.92,91.98,91.74,91.76,9315
25,91.94,91.99,91.8701,91.91,5486
26,91.72,91.98,91.705,91.93,10610
27,91.58,91.8,91.53,91.72,8551
28,91.46,91.57,91.46,91.57,7551
29,91.37,91.51,91.3505,91.485,38745
30,91.39,91.43,91.15,91.4,39982
31,91.27,91.455,91.27,91.36,14333
32,91.27,91.3787,91.26,91.277,11053
33,91.2,91.33,91.18,91.27,12459
34,91.16,91.2,91.08,91.2,17017
35,91.27,91.3,91.14,91.14,15623
36,91.27,91.385,91.26,91.29,11138
37,91.165,91.275,91.165,91.275,12739
38,91.075,91.165,90.9005,91.165,24474
39,91.15,91.17,91.01,91.07,33128
40,90.975,91.15,90.95,91.11,10067
41,91.055,91.12,90.995,90.995,9550
42,90.97,91.1,90.9438,91.055,22166
43,91.03,91.11,90.98,90.98,9104
44,91.04,91.08,90.98,91.03,39037
45,90.92,91.04,90.91,91.035,20097
46,90.59,90.91,90.55,90.87,34250
47,90.6,90.6772,90.58,90.61,4388
48,90.57,90.61,90.43,90.6,16391
49,90.78,90.78,90.47,90.565,18920
50,90.62,90.97,90.6,90.72,26089
51,90.69,90.69,90.59,90.61,6842
52,90.545,90.74,90.5,90.7,21980
53,90.76,90.76,90.4101,90.49,10828
54,90.7296,90.93,90.7296,90.76,8201
55,90.94,90.96,90.63,90.7,9314
56,90.95,90.95,90.82,90.905,7732
57,91.05,91.08,90.915,90.915,15778
58,90.97,91.1,90.94,91.04,17521
59,91.21,91.21,90.95,90.98,15636
60,90.92,91.22,90.65,91.13,28523
61,90.975,91.045,90.8,90.91,13300
62,91.025,91.09,90.84,90.99,30883
63,90.6747,91.02,90.67,91.02,37035
64,90.47,90.65,90.44,90.65,9950
65,90.31,90.61,90.31,90.52,13947
66,90.03,90.35,90.03,90.31,27015
67,90.04,90.0786,89.94,90.07,17129
68,90.07,90.1,89.85,90.04,65270
69,90.225,90.25,90.07,90.07,13425
70,90.32,90.34,90.195,90.2,16609
71,90.41,90.44,90.3,90.33,27346
72,90.46,90.56,90.37,90.37,25744
73,90.46,90.475,90.34,90.475,11439
74,90.415,90.46,90.37,90.46,9481
75,90.47,90.48,90.35,90.415,7300
76,90.37,90.5,90.3408,90.47,11400
77,90.4,90.4186,90.33,90.365,10729
78,90.55,90.55,90.41,90.41,22261
79,90.57,90.58,90.46,90.54,15948
80,90.64,90.67,90.57,90.57,18102
81,90.7788,90.79,90.628,90.65,11812
82,90.74,90.84,90.735,90.79,10340
83,90.7,90.78,90.69,90.72,6139
84,90.72,90.725,90.63,90.66,6791
85,90.78,90.78,90.7,90.71,8974
86,91.02,91.04,90.79,90.79,12645
87,91.12,91.13,90.98,91.04,7600
88,91.13,91.23,91.12,91.13,13075
89,90.98,91.15,90.9591,91.1343,11638
90,91.16,91.16,90.9664,90.9664,10837
91,91.52,91.56,91.11,91.11,28947
92,91.755,91.81,91.5,91.52,25991
93,91.73,91.86,91.65,91.72,15017
94,91.8246,91.86,91.75,91.75,3651
95,91.77,91.82,91.75,91.82,3600
96,91.955,91.99,91.71,91.76,14100
97,92.32,92.34,91.92,91.945,16265
98,92.39,92.42,92.255,92.32,14350
99,92.51,92.55,92.38,92.41,16099
100,92.46,92.545,92.41,92.5,11385
101,92.38,92.49,92.34,92.49,8709
102,92.34,92.44,92.29,92.385,8500
103,92.2772,92.36,92.25,92.36,2000
104,92.41,92.41,92.25,92.27,10825
105,92.59,92.63,92.3672,92.3672,10654
106,92.63,92.65,92.55,92.63,10644
107,92.6,92.65,92.59,92.61,161650
108,92.69,92.71,92.595,92.61,5013
109,92.62,92.72,92.55,92.69,8296
110,92.83,92.83,92.6,92.64,24979
111,92.73,92.88,92.69,92.85,29302
112,92.53,92.705,92.421,92.705,10832
113,92.385,92.52,92.345,92.52,6561
114,92.395,92.45,92.38,92.4,8807
115,92.395,92.41,92.29,92.365,3289
116,92.28,92.51,92.28,92.41,7200
117,92.24,92.32,92.24,92.28,3042
118,92.26,92.28,92.2,92.28,2570
119,92.27,92.38,92.235,92.26,13964
120,92.08,92.35,92.08,92.32,8100
121,92.125,92.1899,92.04,92.041,12900
122,92.21,92.26,92.13,92.15,7940
123,92.32,92.4,92.26,92.26,18298
124,92.42,92.5,92.29,92.3,9008
125,92.345,92.46,92.345,92.46,14695
126,92.255,92.33,92.255,92.33,5994
127,92.04,92.23,92.0218,92.23,7283
128,92.08,92.13,92.06,92.06,6046
129,92.03,92.1258,92.03,92.1258,1600
130,92.12,92.12,92.0431,92.0431,2650
131,92.23,92.255,92.14,92.14,3349
132,92.17,92.203,92.17,92.203,1620
133,92.2,92.2326,92.17,92.17,4590
134,92.29,92.29,92.21,92.21,1820
135,92.29,92.34,92.26,92.28,1900
136,92.41,92.42,92.3,92.3,8038
137,92.35,92.41,92.35,92.4,11859
138,92.2,92.355,92.131,92.355,24151
139,92.305,92.305,92.215,92.215,9095
140,92.335,92.36,92.27,92.3027,4597
141,92.25,92.31,92.25,92.31,1600
142,92.21,92.28,92.17,92.26,2500
143,92.24,92.33,92.21,92.21,5514
144,92.23,92.23,92.19,92.19,634
145,92.19,92.26,92.18,92.23,2025
146,92.2,92.2,92.16,92.19,1722
147,92.21,92.24,92.2,92.21,2950
148,92.04,92.18,92.025,92.18,4830
149,91.9653,92.06,91.91,92.03,4765
150,91.945,91.99,91.915,91.98,7085
151,91.99,92.01,91.9,91.93,5286
152,91.91,91.99,91.9,91.98,15627
153,91.98,91.98,91.89,91.915,12347
154,91.96,91.98,91.91,91.98,8471
155,92,92.04,91.965,91.98,6000
156,92.12,92.12,91.99,92.02,5935
157,92.18,92.21,92.14,92.14,4335
158,92.27,92.3,92.19,92.21,3400
159,92.23,92.32,92.22,92.3,7590
160,92.12,92.23,92.12,92.23,10254
161,92.17,92.17,92.1,92.1,2600
162,92.13,92.21,92.13,92.19,4400
163,92.07,92.12,92.06,92.1,4151
164,92.065,92.08,92.03,92.05,2321
165,91.98,92.09,91.98,92.08,7557
166,92,92,91.9543,91.98,5070
167,91.97,92.01,91.95,92.01,2550
168,92.05,92.08,91.94,91.95,18700
169,91.96,92.03,91.96,92.03,11900
170,91.97,92,91.93,91.98,31900
171,92.02,92.02,91.97,91.97,1500
172,92.04,92.1,92.04,92.0495,4619
173,92,92.03,92,92.03,2100
174,91.98,92.02,91.96,91.99,1443
175,91.97,91.98,91.97,91.97,300
176,91.93,91.95,91.93,91.95,400
177,91.84,91.91,91.84,91.91,3480
178,91.8,91.89,91.8,91.83,6455
179,91.76,91.79,91.76,91.79,500
180,91.8,91.81,91.78,91.78,2501
181,91.74,91.8,91.74,91.79,4233
182,91.71,91.74,91.65,91.74,15345
183,91.72,91.75,91.72,91.725,4078
184,91.88,91.88,91.7,91.72,12329
185,91.97,92.01,91.8501,91.8501,8098
186,92.025,92.025,91.99,92.01,2595
187,92.01,92.05,92,92.03,1149
188,92.01,92.03,92.01,92.015,400
189,91.96,92.01,91.96,92.01,54229
190,91.92,91.98,91.92,91.96,2850
191,91.98,91.98,91.91,91.92,2539
192,92.03,92.07,91.9501,91.9501,5601
193,92.02,92.03,92,92.03,2600
194,92.04,92.04,92.018,92.04,1200
195,92.06,92.06,92.03,92.03,300
196,92.06,92.06,92.05,92.06,2000
197,92.16,92.16,92.06,92.07,2700
198,92.22,92.22,92.165,92.18,2878
199,92.14,92.2109,92.14,92.2109,4889
200,92.17,92.17,92.155,92.17,800
201,92.2,92.2,92.175,92.175,900
202,92.2,92.24,92.19,92.19,900
203,92.35,92.35,92.25,92.25,3650
204,92.36,92.38,92.36,92.37,1500
205,92.38,92.38,92.34,92.38,4691
206,92.38,92.4,92.36,92.4,1264
207,92.42,92.42,92.39,92.39,993
208,92.42,92.45,92.41,92.425,9395
209,92.6,92.6,92.42,92.42,10900
210,92.71,92.76,92.62,92.62,7341
211,92.74,92.83,92.71,92.71,8406
212,92.72,92.83,92.72,92.76,7731
213,92.79,92.79,92.715,92.715,15599
214,92.845,92.85,92.74,92.78,9940
215,92.92,92.92,92.82,92.82,24199
216,92.91,92.92,92.88,92.92,2311
217,92.9,92.9,92.89,92.9,1201
218,92.99,92.99,92.8932,92.9,2900
219,92.95,92.9835,92.92,92.9835,3950
220,92.94,92.99,92.94,92.96,500
221,92.945,92.97,92.93,92.94,2684
222,92.95,92.96,92.93,92.9301,1771
223,93.07,93.09,92.95,92.95,5073
224,93.07,93.07,93.03,93.0643,1071
225,93.15,93.17,93.08,93.09,2300
226,93.15,93.17,93.12,93.15,19777
227,93.2725,93.28,93.17,93.17,2700
228,93.22,93.265,93.2001,93.26,1650
229,93.19,93.2,93.154,93.2,3949
230,93.18,93.24,93.15,93.19,3900
231,93.17,93.17,93.1,93.16,2300
232,93.12,93.2,93.12,93.175,7520
233,93.12,93.15,93.12,93.135,1500
234,93.0291,93.14,93.0291,93.13,9036
235,93.1,93.1,92.975,93.02,5460
236,93.04,93.12,93.005,93.1,4033
237,93.02,93.065,93.02,93.04,3100
238,93.015,93.07,93.015,93.015,2900
239,92.95,93.07,92.95,93.02,5700
240,92.94,93,92.9,92.94,4300
241,92.91,92.97,92.86,92.96,5152
242,92.88,92.96,92.88,92.89,2200
243,92.77,92.9,92.77,92.9,3000
244,92.7818,92.7818,92.75,92.77,3375
245,92.68,92.75,92.68,92.75,2000
246,92.69,92.7,92.68,92.695,1201
247,92.65,92.73,92.64,92.73,2375
248,92.62,92.6311,92.62,92.63,419
249,92.57,92.63,92.56,92.63,5384
250,92.58,92.62,92.56,92.6,4928
251,92.54,92.59,92.54,92.59,2800
252,92.59,92.59,92.53,92.545,2700
253,92.54,92.61,92.54,92.6,7106
254,92.56,92.59,92.53,92.53,6699
255,92.58,92.58,92.56,92.58,600
256,92.59,92.61,92.55,92.56,4900
257,92.58,92.59,92.56,92.58,1800
258,92.5,92.56,92.49,92.56,3370
259,92.48,92.5,92.4603,92.5,2314
260,92.49,92.49,92.44,92.47,3470
261,92.52,92.52,92.47,92.49,5400
262,92.46,92.53,92.46,92.52,3050
263,92.47,92.47,92.43,92.45,1200
264,92.49,92.51,92.49,92.49,2240
265,92.41,92.49,92.41,92.48,3216
266,92.49,92.49,92.43,92.43,2381
267,92.5,92.5,92.49,92.49,600
268,92.49,92.5,92.48,92.5,1313
269,92.48,92.515,92.48,92.48,2869
270,92.42,92.48,92.42,92.48,2802
271,92.44,92.45,92.41,92.44,2400
272,92.4,92.46,92.4,92.4288,2460
273,92.4076,92.43,92.4,92.41,1910
274,92.3436,92.43,92.32,92.3901,6994
275,92.14,92.35,92.14,92.35,9301
276,92.15,92.21,92.14,92.17,7513
277,92.204,92.204,92.14,92.1508,1100
278,92.215,92.22,92.2,92.2,1600
279,92.19,92.2,92.16,92.2,3403
280,92.1732,92.22,92.1732,92.205,3100
281,92.23,92.23,92.15,92.165,5872
282,92.26,92.28,92.2,92.2,2200
283,92.27,92.27,92.25,92.2639,1859
284,92.36,92.36,92.29,92.29,1600
285,92.295,92.36,92.29,92.36,2603
286,92.39,92.39,92.295,92.295,1500
287,92.46,92.47,92.39,92.41,5067
288,92.46,92.49,92.44,92.47,2730
289,92.45,92.46,92.43,92.45,5099
290,92.485,92.52,92.47,92.47,2780
291,92.475,92.475,92.45,92.46,1550
292,92.51,92.51,92.475,92.475,3577
293,92.48,92.52,92.47,92.5,13923
294,92.48,92.49,92.45,92.48,4248
295,92.4,92.44,92.4,92.44,1300
296,92.44,92.44,92.4,92.4,2599
297,92.49,92.49,92.43,92.47,3333
298,92.51,92.58,92.5,92.52,5843
299,92.53,92.56,92.5,92.5,7264
300,92.5037,92.53,92.47,92.51,3621
301,92.51,92.51,92.47,92.4949,2956
302,92.57,92.59,92.51,92.51,5100
303,92.67,92.67,92.57,92.575,18384
304,92.67,92.68,92.65,92.652,1080
305,92.64,92.68,92.63,92.641,4119
306,92.6235,92.66,92.62,92.63,6844
307,92.6,92.65,92.6,92.63,10761
308,92.61,92.65,92.55,92.65,25814
309,92.66,92.66,92.61,92.62,11800
310,92.74,92.74,92.6415,92.655,35484
311,92.75,92.79,92.73,92.735,11252
312,92.76,92.76,92.685,92.74,13450
313,92.8,92.8102,92.74,92.76,5550
314,92.76,92.81,92.76,92.79,8887
315,92.74,92.77,92.685,92.77,11946
316,92.81,92.85,92.75,92.75,15614
317,92.7198,92.78,92.7,92.78,11000
318,92.83,92.83,92.7,92.7,14096
319,92.76,92.88,92.75,92.83,17284
320,92.82,92.89,92.76,92.76,8959
321,92.62,92.82,92.61,92.82,8800
322,92.66,92.67,92.61,92.62,3800
323,92.61,92.69,92.59,92.67,4584
324,92.61,92.69,92.595,92.62,4397
325,92.68,92.68,92.605,92.605,1580
326,92.625,92.67,92.62,92.66,2816
327,92.72,92.755,92.63,92.63,8000
328,92.75,92.75,92.68,92.71,4315
329,92.74,92.79,92.73,92.74,4756
330,92.65,92.75,92.62,92.75,2633
331,92.63,92.68,92.615,92.66,5599
332,92.62,92.64,92.61,92.64,1200
333,92.61,92.64,92.58,92.625,7017
334,92.57,92.61,92.54,92.61,7177
335,92.5,92.575,92.495,92.57,3600
336,92.44,92.505,92.44,92.5,6963
337,92.55,92.55,92.4,92.435,7515
338,92.44,92.53,92.44,92.53,11302
339,92.4,92.44,92.36,92.435,4495
340,92.39,92.39,92.38,92.3899,3068
341,92.37,92.38,92.36,92.38,1100
342,92.3,92.37,92.3,92.36,7992
343,92.32,92.35,92.29,92.3,10491
344,92.315,92.32,92.29,92.32,4115
345,92.3,92.36,92.3,92.315,4350
346,92.32,92.33,92.29,92.295,3400
347,92.27,92.31,92.26,92.31,6365
348,92.2,92.27,92.12,92.27,9695
349,92.14,92.19,92.14,92.17,11842
350,92.05,92.12,92.05,92.12,5000
351,92.1375,92.16,92.08,92.08,7974
352,92.14,92.17,92.12,92.17,2243
353,92.05,92.14,92.02,92.14,83059
354,92.19,92.19,92.03,92.04,29393
355,92.16,92.21,92.15,92.17,4901
356,92.09,92.16,92.06,92.16,4499
357,92.07,92.16,92.07,92.09,9657
358,92.14,92.14,92,92.03,8087
359,92.16,92.16,92.105,92.16,6857
360,92.26,92.26,92.15,92.1587,53849
361,92.29,92.35,92.245,92.25,19351
362,92.39,92.39,92.28,92.2888,9521
363,92.44,92.44,92.375,92.39,7853
364,92.4,92.44,92.355,92.44,12636
365,92.38,92.45,92.38,92.395,14900
366,92.38,92.42,92.355,92.36,9549
367,92.37,92.41,92.36,92.37,7229
368,92.435,92.45,92.35,92.375,20516
369,92.33,92.435,92.32,92.43,11781
370,92.359,92.36,92.325,92.33,8955
371,92.45,92.45,92.37,92.37,11916
372,92.455,92.49,92.45,92.455,13005
373,92.435,92.46,92.395,92.455,12261
374,92.52,92.52,92.44,92.44,37559
375,92.465,92.52,92.4,92.52,18101
376,92.39,92.465,92.35,92.465,14725
377,92.33,92.4,92.33,92.395,26165
378,92.26,92.34,92.26,92.325,29278
379,92.24,92.31,92.23,92.25,22929
380,92.21,92.24,92.19,92.23,14219
381,92.205,92.23,92.19,92.21,23820
382,92.205,92.21,92.2,92.2,16673
383,92.25,92.25,92.2,92.2,20160
384,92.3,92.3,92.24,92.245,25149
385,92.285,92.31,92.25,92.29,29780
386,92.26,92.3,92.25,92.285,26716
387,92.19,92.27,92.19,92.2514,18684
388,92.23,92.24,92.19,92.1907,38498
389,92.3,92.34,92.22,92.225,93175
