PPG,PPG Industries,Materials,8,Specialty Chemicals,27240717518,1336066
a1501680600,104.92,104.92,104.92,104.92,13656
1,104.77,104.77,104.77,104.77,100
2,105.045,105.22,105.045,105.1117,1022
3,105.055,105.055,105.055,105.055,227
4,105.055,105.055,105.055,105.055,300
6,105.195,105.24,105.185,105.2,900
7,105.21,105.21,105.21,105.21,100
8,105.31,105.31,105.29,105.29,600
9,105.41,105.41,105.33,105.38,700
10,105.385,105.48,105.36,105.38,4550
11,105.345,105.385,105.33,105.36,7360
12,105.26,105.33,105.21,105.33,2800
13,105.295,105.335,105.2542,105.31,2820
14,105.34,105.36,105.339,105.339,1000
15,105.43,105.43,105.38,105.38,300
16,105.43,105.43,105.36,105.36,673
17,105.43,105.47,105.41,105.46,2096
18,105.41,105.43,105.36,105.4201,2600
19,105.515,105.515,105.405,105.41,1430
20,105.51,105.51,105.5,105.5,400
21,105.62,105.62,105.54,105.54,400
22,105.74,105.74,105.68,105.68,1800
23,105.73,105.75,105.71,105.75,2448
24,105.72,105.77,105.72,105.74,1398
25,105.74,105.74,105.72,105.74,762
26,105.78,105.78,105.76,105.76,200
27,105.82,105.82,105.77,105.78,300
28,105.82,105.84,105.78,105.82,1700
29,105.78,105.825,105.78,105.825,1380
30,105.75,105.82,105.75,105.76,2283
31,105.76,105.77,105.76,105.76,300
32,105.77,105.83,105.75,105.81,3400
33,105.73,105.74,105.72,105.74,400
34,105.79,105.79,105.78,105.78,300
35,105.82,105.865,105.79,105.8,2864
36,105.8279,105.85,105.8279,105.85,2293
37,105.798,105.85,105.79,105.85,8613
38,105.81,105.81,105.79,105.81,900
39,105.76,105.815,105.76,105.8,4300
40,105.7499,105.78,105.7499,105.76,7958
42,105.7869,105.81,105.7348,105.7348,4206
43,105.81,105.81,105.75,105.795,15651
44,105.82,105.83,105.8064,105.81,3100
45,105.76,105.8282,105.75,105.8282,13600
46,105.7,105.775,105.7,105.75,700
47,105.67,105.73,105.66,105.71,2600
48,105.51,105.69,105.46,105.69,5208
49,105.4891,105.51,105.4891,105.49,3700
50,105.42,105.51,105.42,105.51,2858
51,105.45,105.45,105.446,105.446,200
52,105.51,105.52,105.435,105.435,4600
53,105.44,105.54,105.44,105.52,2939
54,105.45,105.45,105.42,105.42,600
55,105.39,105.425,105.37,105.42,2210
56,105.42,105.43,105.36,105.36,4800
57,105.38,105.41,105.37,105.395,400
58,105.4,105.43,105.34,105.4,3802
59,105.37,105.4294,105.36,105.4,2613
60,105.35,105.39,105.33,105.375,1380
61,105.31,105.35,105.31,105.35,500
62,105.41,105.42,105.33,105.345,3796
63,105.3783,105.4,105.3783,105.4,950
64,105.4,105.405,105.37,105.37,1800
65,105.39,105.42,105.36,105.4,3683
66,105.35,105.39,105.35,105.38,900
67,105.3,105.35,105.25,105.34,2400
68,105.32,105.32,105.285,105.29,1218
69,105.28,105.3,105.28,105.3,200
70,105.23,105.3026,105.23,105.3,1723
71,105.225,105.225,105.225,105.225,4408
72,105.29,105.29,105.235,105.27,1300
74,105.195,105.265,105.19,105.24,7606
75,105.16,105.16,105.12,105.16,2772
76,105.2,105.205,105.15,105.15,4920
77,105.19,105.21,105.16,105.2,8180
78,105.25,105.275,105.17,105.17,7574
79,105.225,105.26,105.21,105.26,2800
80,105.195,105.22,105.195,105.21,1186
81,105.27,105.27,105.21,105.21,2000
82,105.31,105.31,105.2691,105.28,2931
83,105.32,105.32,105.3,105.3,300
84,105.3902,105.41,105.32,105.32,2080
85,105.37,105.395,105.36,105.395,2889
86,105.41,105.41,105.37,105.38,3415
87,105.365,105.41,105.365,105.41,4800
88,105.38,105.38,105.38,105.38,100
89,105.42,105.42,105.36,105.37,6527
90,105.4,105.4,105.37,105.37,300
91,105.43,105.43,105.37,105.42,3390
92,105.43,105.47,105.39,105.41,5004
93,105.43,105.45,105.41,105.42,1600
94,105.49,105.505,105.43,105.43,6980
95,105.5,105.5381,105.49,105.49,1900
96,105.5,105.5,105.48,105.5,1300
97,105.56,105.57,105.5,105.5,3800
98,105.555,105.58,105.54,105.56,5703
99,105.58,105.58,105.56,105.57,1700
100,105.605,105.605,105.58,105.59,4375
101,105.61,105.625,105.6,105.6,5992
102,105.59,105.6,105.58,105.6,1928
103,105.6,105.615,105.57,105.6,4120
104,105.615,105.62,105.6,105.61,3500
106,105.68,105.74,105.64,105.64,4578
107,105.71,105.71,105.69,105.69,1000
108,105.78,105.78,105.72,105.72,900
109,105.82,105.9,105.79,105.795,5860
110,105.87,105.87,105.83,105.83,600
111,105.9,105.905,105.88,105.88,2400
112,105.9,105.915,105.87,105.88,4238
113,105.9,105.93,105.89,105.92,7482
114,105.92,105.96,105.895,105.9,5810
115,105.84,105.94,105.82,105.94,7300
116,105.91,105.93,105.84,105.85,5100
117,105.84,105.89,105.84,105.89,1100
118,105.8201,105.86,105.8201,105.85,1900
120,105.9,105.9,105.835,105.85,3200
121,105.9,105.92,105.9,105.9,1609
122,105.84,105.89,105.84,105.89,3933
123,105.7701,105.84,105.7701,105.84,1300
124,105.84,105.84,105.78,105.79,1532
125,105.88,105.89,105.86,105.87,3044
126,105.9,105.9,105.89,105.89,500
127,105.93,105.93,105.92,105.92,639
128,105.985,105.99,105.95,105.95,4250
129,105.99,106.01,105.98,105.99,800
130,106.07,106.09,106.02,106.02,2200
131,106.04,106.08,106.04,106.08,1428
132,106.13,106.15,106.04,106.04,1501
133,106.16,106.16,106.125,106.13,2066
134,106.23,106.23,106.15,106.15,4010
135,106.25,106.25,106.2,106.25,2062
136,106.28,106.32,106.23,106.24,2600
137,106.21,106.32,106.21,106.31,5575
138,106.23,106.23,106.19,106.19,1000
139,106.15,106.22,106.15,106.21,1200
140,106.2,106.2,106.17,106.2,1500
141,106.19,106.2,106.19,106.19,700
142,106.24,106.27,106.22,106.23,1500
143,106.25,106.3,106.22,106.28,2400
144,106.24,106.27,106.22,106.27,4130
145,106.21,106.28,106.21,106.24,9984
146,106.19,106.2,106.16,106.2,2238
147,106.185,106.185,106.185,106.185,100
148,106.18,106.21,106.18,106.18,6800
149,106.19,106.21,106.19,106.21,700
150,106.19,106.2,106.18,106.195,1718
151,106.17,106.18,106.17,106.18,3292
152,106.21,106.21,106.17,106.17,2575
153,106.2,106.22,106.2,106.21,2000
154,106.2,106.2074,106.2,106.2074,2716
155,106.18,106.23,106.18,106.2,4027
157,106.14,106.17,106.14,106.17,2200
158,106.16,106.16,106.15,106.15,800
159,106.18,106.18,106.17,106.17,500
160,106.2,106.22,106.17,106.17,2142
161,106.29,106.31,106.205,106.205,6600
162,106.45,106.48,106.32,106.32,5761
163,106.43,106.46,106.43,106.45,2700
164,106.46,106.48,106.44,106.44,2950
165,106.46,106.46,106.45,106.45,1750
166,106.475,106.49,106.47,106.47,1400
167,106.5,106.5,106.46,106.4899,2180
168,106.5,106.51,106.49,106.5,3858
169,106.54,106.54,106.5,106.51,3894
170,106.5,106.54,106.5,106.53,2001
171,106.58,106.59,106.5,106.5,4000
172,106.6099,106.6099,106.55,106.55,1300
173,106.545,106.61,106.54,106.6,3900
174,106.5,106.56,106.5,106.54,2733
175,106.51,106.52,106.51,106.51,1000
176,106.51,106.52,106.51,106.52,400
177,106.54,106.55,106.53,106.53,2382
178,106.54,106.54,106.54,106.54,100
179,106.51,106.56,106.51,106.54,4795
180,106.495,106.51,106.48,106.51,600
181,106.525,106.525,106.51,106.51,1100
182,106.51,106.54,106.51,106.525,1700
183,106.53,106.55,106.525,106.525,2717
184,106.5142,106.54,106.5,106.54,2388
185,106.56,106.57,106.51,106.5168,5534
186,106.56,106.58,106.56,106.5638,2730
187,106.59,106.59,106.57,106.57,2200
188,106.55,106.61,106.55,106.6,6734
190,106.49,106.55,106.49,106.55,3334
191,106.47,106.48,106.47,106.48,500
192,106.48,106.49,106.48,106.48,400
193,106.4861,106.5,106.4861,106.495,1151
194,106.48,106.49,106.46,106.49,2920
195,106.52,106.52,106.48,106.4898,2180
196,106.49,106.52,106.49,106.52,1610
197,106.43,106.48,106.42,106.48,900
198,106.615,106.67,106.44,106.44,44103
199,106.76,106.81,106.6,106.6,16212
200,106.77,106.85,106.77,106.8,5200
201,106.8016,106.83,106.73,106.75,4119
202,106.76,106.8,106.73,106.76,5200
203,106.755,106.755,106.755,106.755,100
204,106.76,106.76,106.74,106.74,900
205,106.79,106.79,106.72,106.74,2817
206,106.72,106.8,106.72,106.8,1400
207,106.72,106.72,106.7,106.7,2250
209,106.74,106.74,106.7,106.72,1500
210,106.68,106.72,106.68,106.72,1200
211,106.64,106.66,106.63,106.66,1296
212,106.62,106.635,106.61,106.63,1000
213,106.64,106.66,106.61,106.61,2188
214,106.64,106.66,106.63,106.65,1500
215,106.6,106.635,106.6,106.635,1386
216,106.625,106.625,106.62,106.62,1469
217,106.625,106.625,106.625,106.625,300
218,106.625,106.625,106.61,106.61,820
219,106.62,106.63,106.62,106.625,1851
220,106.61,106.64,106.6,106.62,8560
221,106.55,106.61,106.55,106.61,2300
222,106.4,106.53,106.4,106.53,1210
223,106.36,106.36,106.36,106.36,200
224,106.35,106.37,106.35,106.36,710
225,106.31,106.34,106.31,106.33,1400
226,106.325,106.34,106.31,106.31,510
227,106.27,106.34,106.27,106.34,3111
228,106.23,106.27,106.2,106.26,5160
229,106.28,106.31,106.25,106.25,2100
230,106.34,106.34,106.29,106.29,1210
231,106.35,106.35,106.31,106.31,2800
232,106.37,106.37,106.33,106.35,7268
233,106.355,106.355,106.355,106.355,600
234,106.355,106.355,106.341,106.35,795
235,106.34,106.36,106.34,106.35,3127
236,106.31,106.33,106.31,106.33,600
237,106.295,106.3,106.29,106.29,1043
238,106.34,106.34,106.31,106.31,1716
239,106.3,106.355,106.28,106.35,5700
240,106.38,106.38,106.31,106.31,2500
241,106.34,106.36,106.34,106.36,1102
242,106.31,106.31,106.31,106.31,534
243,106.319,106.319,106.31,106.31,400
244,106.36,106.36,106.32,106.32,2598
245,106.32,106.32,106.32,106.32,100
246,106.33,106.34,106.31,106.34,1980
247,106.345,106.36,106.34,106.35,1500
248,106.36,106.36,106.36,106.36,100
250,106.38,106.39,106.34,106.36,3500
251,106.37,106.39,106.37,106.38,1500
252,106.37,106.375,106.37,106.37,1300
253,106.35,106.37,106.35,106.37,4467
254,106.34,106.38,106.34,106.37,2000
255,106.34,106.34,106.33,106.34,2100
256,106.3,106.32,106.29,106.32,6560
257,106.3,106.33,106.27,106.29,7101
258,106.28,106.31,106.28,106.29,2100
259,106.27,106.28,106.27,106.28,200
260,106.24,106.26,106.24,106.26,900
261,106.22,106.235,106.22,106.22,400
262,106.21,106.23,106.21,106.22,600
264,106.21,106.24,106.21,106.22,2330
265,106.205,106.23,106.2,106.22,4469
266,106.205,106.205,106.205,106.205,200
267,106.23,106.23,106.18,106.18,1902
268,106.19,106.21,106.19,106.21,1210
269,106.21,106.21,106.195,106.2,700
270,106.24,106.24,106.21,106.21,1504
271,106.225,106.24,106.22,106.24,1700
272,106.21,106.25,106.21,106.24,3535
273,106.26,106.26,106.19,106.19,3111
274,106.315,106.32,106.26,106.26,1900
275,106.32,106.32,106.32,106.32,200
276,106.33,106.36,106.33,106.33,3310
277,106.34,106.34,106.33,106.33,800
278,106.31,106.33,106.31,106.32,3695
279,106.29,106.34,106.29,106.34,1707
280,106.32,106.32,106.299,106.299,1793
281,106.32,106.35,106.32,106.35,2400
282,106.31,106.34,106.31,106.32,2300
283,106.31,106.34,106.3,106.3,2148
284,106.31,106.32,106.31,106.32,500
285,106.305,106.31,106.29,106.3,2010
286,106.28,106.31,106.28,106.3,4654
287,106.27,106.28,106.27,106.28,1000
288,106.305,106.32,106.27,106.28,4500
289,106.3,106.32,106.3,106.311,2200
290,106.3,106.32,106.29,106.31,6629
291,106.31,106.31,106.29,106.3,4210
292,106.31,106.315,106.305,106.315,1300
293,106.3,106.32,106.295,106.31,3825
294,106.3,106.32,106.3,106.3,3851
295,106.28,106.31,106.28,106.305,3000
296,106.23,106.2867,106.23,106.28,4562
297,106.315,106.315,106.24,106.24,2603
299,106.305,106.31,106.29,106.29,2374
300,106.3298,106.34,106.28,106.31,9304
301,106.285,106.32,106.285,106.32,3312
302,106.32,106.33,106.285,106.2864,4010
303,106.385,106.385,106.31,106.31,4475
304,106.4,106.4,106.38,106.38,1050
305,106.385,106.42,106.38,106.42,800
306,106.42,106.42,106.39,106.39,1000
307,106.4,106.41,106.4,106.4,2900
308,106.4,106.46,106.39,106.4,11813
309,106.43,106.43,106.395,106.395,2990
310,106.41,106.44,106.41,106.435,2517
311,106.4,106.43,106.4,106.405,4602
312,106.41,106.41,106.405,106.41,1000
313,106.43,106.44,106.43,106.43,1066
314,106.46,106.46,106.45,106.45,700
315,106.46,106.47,106.4502,106.465,1521
316,106.5,106.51,106.45,106.45,3526
317,106.58,106.58,106.48,106.48,3700
318,106.57,106.58,106.52,106.555,1300
319,106.57,106.59,106.5508,106.59,555
320,106.6,106.6,106.56,106.58,1700
321,106.62,106.62,106.58,106.58,8761
322,106.607,106.607,106.58,106.58,278
323,106.57,106.5801,106.57,106.5801,2380
324,106.5805,106.5805,106.57,106.57,300
325,106.55,106.574,106.55,106.57,3442
326,106.56,106.56,106.55,106.56,2734
327,106.53,106.54,106.52,106.54,2524
328,106.56,106.56,106.52,106.5244,2343
329,106.562,106.59,106.562,106.59,316
330,106.58,106.6,106.58,106.59,600
331,106.58,106.62,106.58,106.58,700
332,106.61,106.62,106.61,106.62,3490
333,106.58,106.61,106.58,106.6066,2670
334,106.59,106.59,106.565,106.58,1900
335,106.59,106.605,106.58,106.59,1000
336,106.56,106.58,106.55,106.58,2230
337,106.5102,106.545,106.51,106.545,1516
338,106.48,106.5,106.46,106.5,2200
339,106.52,106.52,106.48,106.48,5590
340,106.53,106.55,106.53,106.54,1100
341,106.535,106.545,106.535,106.54,1400
342,106.56,106.56,106.54,106.54,5044
343,106.545,106.58,106.545,106.57,2645
344,106.57,106.57,106.55,106.55,1731
345,106.55,106.56,106.54,106.56,3468
346,106.55,106.55,106.55,106.55,500
347,106.54,106.54,106.51,106.54,3895
348,106.51,106.54,106.51,106.54,1796
349,106.51,106.52,106.51,106.51,800
350,106.51,106.53,106.5,106.52,6155
351,106.49,106.525,106.49,106.51,4663
352,106.49,106.49,106.49,106.49,500
353,106.435,106.48,106.435,106.48,2410
354,106.44,106.44,106.43,106.44,1600
355,106.41,106.44,106.4,106.44,2210
356,106.44,106.44,106.41,106.41,2700
357,106.46,106.47,106.43,106.43,4312
358,106.45,106.4626,106.45,106.4626,3385
359,106.43,106.44,106.42,106.44,3882
360,106.425,106.425,106.42,106.42,300
361,106.38,106.42,106.38,106.42,3214
362,106.36,106.38,106.35,106.38,4505
363,106.325,106.35,106.32,106.35,1445
364,106.3,106.325,106.3,106.325,2281
365,106.315,106.35,106.31,106.31,7626
366,106.3,106.35,106.27,106.32,14287
367,106.28,106.31,106.28,106.3,4510
368,106.3,106.305,106.27,106.28,8045
369,106.29,106.31,106.29,106.3,2066
370,106.33,106.33,106.31,106.31,4180
371,106.33,106.35,106.33,106.33,7666
372,106.275,106.325,106.27,106.325,6455
373,106.27,106.28,106.26,106.26,7129
374,106.26,106.27,106.25,106.26,3167
375,106.26,106.27,106.25,106.25,10398
376,106.31,106.31,106.26,106.26,7852
377,106.3375,106.35,106.31,106.31,11150
378,106.37,106.38,106.34,106.34,5168
379,106.41,106.41,106.37,106.375,6253
380,106.46,106.46,106.4,106.4,4674
381,106.44,106.48,106.42,106.46,8445
382,106.45,106.46,106.44,106.44,5792
383,106.38,106.455,106.37,106.4543,11924
384,106.35,106.37,106.32,106.37,7936
385,106.32,106.39,106.32,106.35,12583
386,106.28,106.34,106.27,106.33,13574
387,106.31,106.34,106.28,106.28,15727
388,106.2575,106.31,106.25,106.31,41355
389,106.22,106.27,106.21,106.26,35015
390,106.21,106.24,106.16,106.23,46124
