EOG,EOG Resources,Energy,3,Oil & Gas Exploration & Production,49585470191,3169286
a1504618200,85.92,85.92,85.92,85.92,1100
1,85.85,86.01,85.79,85.81,4122
2,85.99,86.07,85.91,86.06,39254
3,86.25,86.25,85.96,86,1600
4,86.22,86.3204,86.02,86.3,22619
5,86.23,86.43,86.205,86.27,10139
6,86.47,86.6,86.47,86.5,1100
7,86.55,86.68,86.31,86.49,17637
8,86.485,86.6299,86.4,86.6,29547
9,86.34,86.52,86.28,86.48,10487
10,86.35,86.47,86.28,86.3,4638
11,86.4,86.4,86.15,86.28,8992
12,86.309,86.49,86.28,86.4199,3004
13,86.21,86.35,86.21,86.35,8861
14,85.945,86.2,85.945,86.2,2500
15,85.88,85.969,85.78,85.88,6477
16,85.95,85.99,85.8,85.98,8740
17,86.09,86.16,85.92,85.95,11467
18,86.09,86.12,86,86.01,1900
19,86.11,86.18,86.11,86.12,800
20,85.949,86.1,85.87,86.05,5090
21,86.029,86.11,85.91,85.95,2000
22,85.9498,86.06,85.945,86.06,2000
23,86.02,86.09,85.951,85.97,2956
24,86.06,86.11,86.03,86.03,1609
25,85.94,86.08,85.92,86.06,1523
26,85.99,86.07,85.95,85.96,3958
27,86.05,86.08,85.95,85.96,4242
28,85.89,86.015,85.845,85.995,3042
29,85.89,85.89,85.84,85.8463,800
30,85.94,85.99,85.9,85.9,1658
31,85.91,85.98,85.91,85.93,1100
32,85.98,86.05,85.95,85.96,1800
33,86.025,86.03,85.97,85.97,1800
34,86.06,86.09,85.99,86.04,3593
35,86.05,86.12,86.05,86.07,3120
36,86.09,86.09,86.02,86.06,7902
37,86.12,86.12,86.04,86.08,10045
38,86.115,86.15,86.07,86.08,4510
39,86.06,86.12,86,86.12,6429
40,86.03,86.08,85.99,86.06,1113
41,85.965,86,85.94,86,2200
42,85.8,85.98,85.8,85.96,12667
43,85.885,85.885,85.79,85.79,3438
44,85.93,85.96,85.8852,85.8852,7215
45,85.925,85.95,85.88,85.91,4380
46,85.915,85.965,85.9,85.9,2838
47,85.91,85.965,85.87,85.9,3463
48,85.97,85.97,85.9,85.93,4363
49,85.93,85.95,85.9,85.95,900
50,85.99,86.03,85.9,85.9,38092
51,85.97,86.02,85.97,85.99,2600
52,85.95,86,85.88,85.97,24117
53,85.98,86.03,85.95,85.98,4500
54,86,86.03,85.97,85.97,1200
55,85.99,86.04,85.96,86.04,5345
56,85.91,86.015,85.91,85.99,3252
57,85.94,85.96,85.92,85.939,2100
58,85.96,85.97,85.92,85.925,3175
59,85.88,85.95,85.88,85.95,2800
60,85.83,85.94,85.83,85.88,5100
61,85.86,85.87,85.81,85.86,1360
62,85.905,85.95,85.87,85.87,5967
63,85.95,85.99,85.91,85.92,4700
64,85.99,86.06,85.98,85.98,6295
65,86,86,85.95,85.97,1200
66,85.95,86.02,85.95,86.01,6600
67,85.94,85.95,85.92,85.95,1310
68,85.988,85.995,85.96,85.96,500
69,85.88,85.99,85.88,85.99,800
70,85.88,85.92,85.85,85.85,813
71,85.82,85.87,85.82,85.87,906
72,85.79,85.84,85.79,85.84,750
73,85.72,85.77,85.71,85.75,1900
74,85.65,85.76,85.65,85.72,4929
75,85.69,85.71,85.64,85.655,4600
76,85.59,85.68,85.59,85.68,1500
77,85.65,85.65,85.6,85.62,1066
80,85.72,85.72,85.695,85.695,300
81,85.79,85.79,85.67,85.67,8144
82,85.82,85.82,85.77,85.79,38790
83,85.84,85.88,85.8,85.83,7828
84,85.84,85.85,85.8011,85.83,5279
85,85.87,85.9,85.83,85.85,9392
86,85.8845,85.94,85.8601,85.8601,6329
87,85.96,85.96,85.89,85.89,3200
88,86.04,86.06,85.965,85.99,11526
89,86.07,86.07,85.98,86.06,4406
90,86.13,86.15,86.06,86.06,3050
91,86.11,86.14,86.08,86.14,3100
92,86.125,86.17,86.12,86.12,4250
93,86.2,86.21,86.13,86.13,6971
94,86.15,86.21,86.15,86.19,2842
95,86.24,86.24,86.15,86.15,5300
96,86.2327,86.25,86.21,86.23,3938
97,86.3,86.3,86.16,86.22,5995
98,86.32,86.32,86.26,86.3,2400
99,86.28,86.33,86.28,86.32,995
100,86.23,86.29,86.23,86.29,1300
101,86.21,86.255,86.21,86.255,1000
102,86.19,86.24,86.17,86.19,22000
103,86.21,86.21,86.1805,86.1805,570
104,86.15,86.22,86.14,86.21,4670
105,86.115,86.12,86.07,86.12,3300
106,86.04,86.095,86.03,86.095,2872
107,85.97,86.05,85.9,86.05,3800
108,85.98,85.98,85.91,85.97,3715
109,85.97,85.975,85.955,85.975,787
110,85.96,86.06,85.96,85.99,2600
111,85.97,86.01,85.9401,85.9401,1669
112,86.01,86.05,85.97,85.97,2700
113,86.12,86.12,86.03,86.03,1500
114,86.15,86.15,86.08,86.09,2713
115,86.18,86.24,86.14,86.145,5200
116,86.17,86.18,86.16,86.18,1130
117,86.17,86.22,86.17,86.22,1500
118,86.1173,86.17,86.1,86.17,2653
119,86.13,86.16,86.13,86.16,600
120,86.1802,86.2,86.1,86.12,7426
121,86.13,86.17,86.12,86.16,6396
122,86.125,86.18,86.11,86.13,7125
123,86.17,86.17,86.11,86.11,3001
124,86.14,86.17,86.14,86.17,2200
125,86.11,86.15,86.09,86.15,5700
126,86.12,86.15,86.08,86.12,3500
127,86.09,86.14,86.09,86.1175,5330
128,86.08,86.12,86.08,86.1,5509
129,86.04,86.085,86.03,86.085,5574
130,86,86.05,86,86.04,13039
131,86.02,86.05,86.01,86.01,8050
132,86.16,86.16,86.01,86.02,8631
133,86.105,86.14,86.1,86.13,4200
134,86.09,86.12,86.09,86.12,4550
135,86.06,86.1,86.06,86.09,8310
136,86.045,86.07,86,86.07,4268
137,86.11,86.11,86.02,86.04,4700
138,86.1,86.1,86.07,86.08,2900
139,86.13,86.15,86.11,86.11,6400
140,86.1266,86.16,86.115,86.14,6197
141,86.12,86.15,86.1,86.13,2197
142,86.125,86.17,86.12,86.14,2900
143,86.1325,86.15,86.12,86.12,2054
144,86.14,86.15,86.11,86.12,3247
145,86.05,86.1499,86.01,86.1499,4173
146,86.07,86.08,86.07,86.07,1200
147,86.06,86.06,85.96,86.06,3716
148,86.03,86.1,86.02,86.05,1300
149,86.01,86.02,85.98,86.02,2917
150,85.95,86.03,85.95,86,5500
151,85.82,85.955,85.82,85.95,3800
152,85.89,85.89,85.83,85.84,3800
153,85.81,85.88,85.8,85.88,2500
154,85.82,85.83,85.7801,85.7801,1600
155,85.82,85.85,85.78,85.83,2373
156,85.79,85.85,85.78,85.85,900
157,85.81,85.81,85.75,85.81,2200
158,85.78,85.8,85.78,85.79,1000
159,85.81,85.81,85.79,85.79,1700
160,85.73,85.819,85.73,85.819,4610
161,85.76,85.8,85.75,85.76,4300
162,85.74,85.74,85.69,85.74,2600
163,85.76,85.785,85.76,85.76,1900
164,85.72,85.76,85.72,85.76,2800
165,85.68,85.73,85.66,85.72,2100
166,85.66,85.72,85.66,85.69,2700
167,85.64,85.68,85.61,85.66,3660
168,85.62,85.64,85.6172,85.6172,2000
169,85.65,85.65,85.6164,85.62,2200
170,85.69,85.69,85.63,85.63,1600
171,85.637,85.67,85.62,85.67,3300
172,85.69,85.69,85.64,85.64,2500
173,85.72,85.72,85.69,85.69,1000
174,85.68,85.72,85.65,85.68,4415
175,85.68,85.68,85.66,85.67,2600
176,85.62,85.68,85.61,85.66,3410
177,85.67,85.67,85.61,85.61,4405
178,85.65,85.68,85.61,85.68,8100
179,85.66,85.68,85.63,85.65,7731
180,85.64,85.68,85.61,85.67,5691
181,85.54,85.64,85.53,85.64,8457
182,85.63,85.63,85.54,85.56,4200
183,85.54,85.64,85.5005,85.64,11668
184,85.6,85.6,85.53,85.54,8271
185,85.56,85.6,85.5464,85.57,5400
186,85.61,85.61,85.54,85.56,9000
187,85.6,85.66,85.57,85.6,17190
188,85.61,85.66,85.58,85.6,9775
189,85.6,85.63,85.565,85.61,16900
190,85.63,85.63,85.58,85.61,4401
191,85.56,85.63,85.55,85.63,4962
192,85.62,85.64,85.565,85.565,2400
193,85.64,85.69,85.62,85.63,7400
194,85.66,85.66,85.6,85.64,4000
195,85.65,85.66,85.61,85.63,2300
196,85.63,85.65,85.63,85.65,3850
197,85.63,85.67,85.62,85.62,5119
198,85.61,85.62,85.5757,85.62,5178
199,85.64,85.69,85.62,85.62,9766
200,85.61,85.63,85.59,85.63,5953
201,85.61,85.64,85.59,85.64,4300
202,85.67,85.68,85.61,85.62,14909
203,85.59,85.68,85.56,85.68,6101
204,85.65,85.65,85.5936,85.6,1645
205,85.67,85.67,85.66,85.67,1150
206,85.65,85.7,85.64,85.69,3350
207,85.69,85.69,85.655,85.67,3000
208,85.74,85.74,85.6647,85.675,16946
209,85.75,85.79,85.74,85.75,2300
210,85.74,85.77,85.71,85.74,5999
211,85.62,85.74,85.62,85.74,3210
212,85.6,85.65,85.57,85.65,3740
213,85.57,85.61,85.56,85.579,5188
214,85.59,85.59,85.57,85.58,1600
215,85.55,85.6,85.51,85.59,4588
216,85.47,85.57,85.47,85.56,7012
217,85.53,85.54,85.48,85.5,3177
218,85.535,85.56,85.535,85.55,745
219,85.47,85.535,85.47,85.535,2000
220,85.48,85.5,85.48,85.49,3000
221,85.47,85.5,85.45,85.45,2200
222,85.47,85.5,85.46,85.49,2519
223,85.415,85.47,85.415,85.47,1300
224,85.43,85.43,85.4,85.43,1600
225,85.37,85.43,85.36,85.42,4500
226,85.35,85.36,85.34,85.34,1400
227,85.41,85.41,85.355,85.37,3250
228,85.44,85.44,85.39,85.4,7828
229,85.46,85.46,85.43,85.44,1605
230,85.505,85.51,85.43,85.445,3157
231,85.535,85.535,85.49,85.5,1800
232,85.51,85.525,85.49,85.525,2900
233,85.54,85.54,85.5172,85.52,930
234,85.51,85.54,85.5,85.53,3500
235,85.49,85.5,85.4801,85.49,1190
236,85.5,85.5,85.45,85.48,2900
237,85.552,85.552,85.5,85.5,3401
238,85.565,85.565,85.555,85.555,50400
239,85.51,85.58,85.44,85.58,23412
240,85.53,85.56,85.51,85.53,2820
241,85.53,85.53,85.51,85.53,500
242,85.51,85.53,85.51,85.53,2107
243,85.41,85.5,85.41,85.5,4900
244,85.43,85.45,85.42,85.43,77700
245,85.32,85.42,85.32,85.42,6595
246,85.29,85.32,85.26,85.32,4250
247,85.36,85.36,85.3,85.3,4800
248,85.38,85.4,85.35,85.36,4102
249,85.47,85.47,85.3804,85.3804,3368
250,85.4603,85.47,85.44,85.46,1565
251,85.46,85.48,85.44,85.46,3500
252,85.465,85.465,85.465,85.465,200
253,85.47,85.49,85.47,85.47,2595
254,85.48,85.48,85.46,85.46,1900
255,85.4579,85.47,85.4384,85.46,3550
256,85.55,85.55,85.45,85.45,4668
257,85.53,85.55,85.51,85.55,1100
258,85.5,85.54,85.49,85.53,3400
259,85.46,85.5062,85.46,85.5062,2000
260,85.46,85.49,85.455,85.455,4425
261,85.48,85.49,85.44,85.47,2100
262,85.52,85.52,85.49,85.49,910
263,85.505,85.53,85.49,85.51,3400
264,85.525,85.525,85.49,85.52,2700
265,85.58,85.58,85.52,85.52,4900
266,85.52,85.58,85.52,85.57,3400
267,85.45,85.53,85.45,85.51,3500
268,85.46,85.46,85.42,85.44,3318
269,85.4,85.45,85.4,85.45,2196
270,85.46,85.48,85.41,85.41,4200
271,85.48,85.49,85.46,85.49,1700
272,85.54,85.55,85.47,85.47,3795
273,85.58,85.585,85.56,85.56,1050
274,85.61,85.65,85.59,85.59,2000
275,85.6796,85.68,85.61,85.61,2300
276,85.644,85.67,85.64,85.66,2083
277,85.63,85.67,85.62,85.66,1802
278,85.62,85.64,85.59,85.64,1816
279,85.6,85.62,85.6,85.62,1900
280,85.62,85.62,85.56,85.606,4872
281,85.62,85.62,85.57,85.61,2964
282,85.63,85.63,85.58,85.59,4942
283,85.63,85.68,85.63,85.64,1317
284,85.64,85.68,85.6325,85.6325,2864
285,85.645,85.645,85.645,85.645,200
286,85.61,85.63,85.61,85.61,2100
287,85.6,85.64,85.59,85.59,5934
288,85.62,85.62,85.59,85.59,2680
289,85.52,85.62,85.52,85.6,10823
290,85.54,85.57,85.54,85.54,1800
291,85.58,85.59,85.54,85.57,1810
292,85.61,85.62,85.56,85.57,1802
293,85.55,85.62,85.55,85.62,1694
294,85.56,85.59,85.55,85.55,1800
295,85.51,85.5556,85.505,85.54,2092
296,85.5,85.52,85.5,85.51,1700
297,85.56,85.58,85.53,85.53,1819
298,85.7,85.7,85.59,85.59,5406
299,85.7,85.72,85.66,85.69,1300
300,85.67,85.71,85.66,85.68,3170
301,85.7,85.7,85.6682,85.67,1488
302,85.7,85.72,85.68,85.7,1600
303,85.71,85.71,85.68,85.71,600
304,85.73,85.78,85.69,85.69,5130
305,85.66,85.735,85.66,85.71,1638
306,85.67,85.67,85.65,85.67,2000
307,85.64,85.7,85.64,85.68,1262
308,85.65,85.6675,85.63,85.63,3084
309,85.59,85.65,85.59,85.64,2280
310,85.58,85.619,85.57,85.57,1600
311,85.62,85.639,85.59,85.6,2943
312,85.5604,85.62,85.56,85.62,4308
313,85.56,85.56,85.53,85.56,1700
314,85.59,85.59,85.53,85.54,2502
315,85.61,85.61,85.575,85.58,2210
316,85.61,85.62,85.6,85.62,1066
317,85.62,85.64,85.61,85.61,1081
318,85.61,85.62,85.59,85.62,1900
319,85.56,85.6,85.56,85.57,6400
320,85.555,85.58,85.55,85.555,2934
321,85.58,85.6,85.54,85.54,5262
322,85.61,85.61,85.6,85.6,1450
323,85.61,85.62,85.59,85.61,3420
324,85.61,85.63,85.61,85.61,1855
325,85.59,85.61,85.58,85.6,991
326,85.59,85.59,85.57,85.59,1900
327,85.59,85.609,85.58,85.58,1802
328,85.59,85.59,85.59,85.59,1200
329,85.65,85.65,85.59,85.59,2510
330,85.63,85.65,85.61,85.65,1550
331,85.65,85.65,85.62,85.62,1900
332,85.66,85.67,85.63,85.64,2000
333,85.64,85.69,85.64,85.67,2484
334,85.63,85.6564,85.63,85.65,833
335,85.65,85.66,85.64,85.65,2150
336,85.6,85.65,85.6,85.64,2801
337,85.58,85.59,85.575,85.59,1700
338,85.53,85.56,85.51,85.56,3107
339,85.52,85.55,85.52,85.53,600
340,85.55,85.56,85.54,85.54,2900
341,85.59,85.6,85.56,85.56,2998
342,85.52,85.57,85.52,85.57,1400
343,85.55,85.56,85.51,85.51,1806
344,85.58,85.58,85.53,85.55,2431
345,85.57,85.59,85.57,85.5797,3689
346,85.58,85.58,85.54,85.57,4582
347,85.58,85.6,85.555,85.56,2892
348,85.5747,85.6099,85.57,85.57,1285
349,85.59,85.6,85.58,85.58,2100
350,85.57,85.6,85.57,85.6,1320
351,85.53,85.56,85.52,85.55,2100
352,85.51,85.53,85.51,85.52,2562
353,85.56,85.61,85.51,85.52,5863
354,85.59,85.6,85.56,85.57,1800
355,85.62,85.66,85.57,85.59,3810
356,85.65,85.65,85.6,85.63,4500
357,85.73,85.74,85.6399,85.64,9082
358,85.71,85.74,85.7,85.72,1600
359,85.78,85.79,85.71,85.71,2593
360,85.8,85.8,85.765,85.78,2750
361,85.82,85.88,85.79,85.8,7400
362,85.78,85.82,85.78,85.81,5200
363,85.78,85.79,85.77,85.79,3546
364,85.79,85.79,85.74,85.77,4067
365,85.83,85.83,85.77,85.79,5620
366,85.8,85.8582,85.8,85.83,6410
367,85.75,85.7999,85.75,85.78,11537
368,85.74,85.77,85.73,85.74,6200
369,85.77,85.8,85.74,85.74,5190
370,85.8,85.83,85.75,85.75,8600
371,85.7,85.79,85.7,85.79,7655
372,85.745,85.75,85.69,85.7,7533
373,85.77,85.78,85.73,85.73,5550
374,85.755,85.77,85.74,85.77,8491
375,85.785,85.83,85.755,85.755,17303
376,85.76,85.82,85.755,85.78,14041
377,85.78,85.8,85.755,85.76,11322
378,85.77,85.78,85.76,85.78,7304
379,85.76,85.79,85.755,85.78,12005
380,85.8,85.82,85.76,85.77,15742
381,85.77,85.78,85.71,85.78,21676
382,85.77,85.795,85.76,85.77,9465
383,85.84,85.84,85.77,85.77,8532
384,85.825,85.8599,85.81,85.84,9006
385,85.9,85.9,85.805,85.825,12489
386,85.9,85.92,85.89,85.89,16095
387,85.84,85.905,85.84,85.9,13299
388,85.86,85.86,85.82,85.84,17812
389,85.94,85.94,85.86,85.86,24363
390,85.86,85.93,85.82,85.93,40443
