EOG,EOG Resources,Energy,3,Oil & Gas Exploration & Production,48557607858,3299031
a1503063060,83.37,83.48,83.35,83.35,165160
1,83.31,83.4,83.31,83.4,1900
2,83.301,83.409,83.301,83.31,2800
3,83.56,83.56,83.36,83.36,4503
4,83.4775,83.5,83.42,83.45,5686
5,83.33,83.48,83.29,83.45,4892
6,83.65,83.68,83.31,83.31,5378
7,83.58,83.7,83.58,83.6,3802
8,83.58,83.59,83.49,83.5801,9962
9,83.499,83.59,83.47,83.59,4637
10,83.56,83.56,83.464,83.54,4102
11,83.69,83.69,83.58,83.6,2568
12,83.71,83.72,83.58,83.63,4238
13,83.8,83.8,83.7,83.72,6082
14,83.88,83.93,83.8,83.8,13316
15,83.76,83.94,83.73,83.91,13928
16,83.73,83.79,83.71,83.73,4960
17,83.78,83.81,83.67,83.7,4966
18,83.8,83.84,83.74,83.75,4687
19,83.81,83.87,83.77,83.8,8448
20,83.75,83.86,83.75,83.84,3522
21,83.61,83.72,83.61,83.72,3600
22,83.52,83.63,83.515,83.63,9573
23,83.63,83.63,83.55,83.55,11964
24,83.59,83.64,83.58,83.64,1900
25,83.6,83.65,83.58,83.59,8909
26,83.46,83.58,83.44,83.58,5900
27,83.39,83.46,83.38,83.44,18329
28,83.405,83.42,83.36,83.39,5833
29,83.49,83.5,83.4,83.4,5599
30,83.47,83.48,83.41,83.47,8337
31,83.525,83.55,83.46,83.48,10661
32,83.61,83.61,83.54,83.56,2600
33,83.58,83.65,83.56,83.63,6700
34,83.695,83.74,83.57,83.59,11001
35,83.62,83.72,83.62,83.7,4559
36,83.69,83.69,83.62,83.64,2604
37,83.75,83.75,83.68,83.69,1400
38,83.81,83.88,83.72,83.74,3450
39,83.84,83.84,83.75,83.83,7700
40,83.83,83.83,83.77,83.82,6200
41,83.73,83.85,83.68,83.84,6068
42,83.72,83.75,83.7,83.725,2336
43,83.725,83.73,83.7,83.7,3023
44,83.6999,83.74,83.67,83.71,8827
45,83.8,83.805,83.7,83.7,5614
46,83.79,83.82,83.77,83.8,7000
47,83.755,83.81,83.73,83.8,6762
48,83.68,83.75,83.68,83.75,3859
49,83.66,83.67,83.62,83.65,2610
50,83.57,83.6899,83.57,83.67,2763
51,83.6,83.63,83.59,83.61,6300
52,83.63,83.6351,83.59,83.61,1500
53,83.62,83.625,83.6,83.625,2000
54,83.6,83.6,83.57,83.59,4200
55,83.6,83.65,83.59,83.61,5026
56,83.54,83.59,83.54,83.59,1000
57,83.55,83.55,83.51,83.53,2410
58,83.61,83.61,83.53,83.53,2412
59,83.6,83.62,83.57,83.62,2568
60,83.58,83.6,83.54,83.57,4018
61,83.56,83.6,83.56,83.59,2922
62,83.52,83.58,83.49,83.57,9030
63,83.49,83.51,83.47,83.51,2300
64,83.46,83.47,83.44,83.47,1348
65,83.59,83.59,83.45,83.45,2945
66,83.44,83.57,83.44,83.56,3558
67,83.53,83.53,83.44,83.45,1900
68,83.54,83.54,83.5,83.53,1165
69,83.56,83.59,83.54,83.555,1897
70,83.49,83.54,83.4389,83.54,3090
71,83.6,83.6,83.5,83.5,2856
72,83.69,83.69,83.58,83.58,5356
73,83.62,83.69,83.6,83.69,4631
74,83.62,83.65,83.61,83.62,2750
75,83.62,83.65,83.6017,83.635,3550
76,83.57,83.605,83.53,83.605,5007
77,83.64,83.64,83.57,83.57,2974
78,83.64,83.64,83.63,83.63,400
79,83.6,83.66,83.58,83.66,4177
80,83.645,83.66,83.59,83.6,2150
81,83.65,83.67,83.65,83.67,1700
82,83.55,83.66,83.55,83.66,4191
83,83.59,83.59,83.53,83.55,8600
84,83.58,83.62,83.58,83.59,3321
85,83.58,83.595,83.57,83.58,2300
86,83.635,83.635,83.58,83.59,3100
87,83.63,83.655,83.61,83.65,3011
88,83.65,83.65,83.61,83.64,1740
89,83.57,83.63,83.57,83.63,2147
90,83.67,83.68,83.61,83.61,4705
91,83.73,83.74,83.67,83.67,2425
92,83.67,83.74,83.67,83.74,3190
93,83.6775,83.68,83.66,83.6738,1739
94,83.73,83.73,83.7,83.7,2600
95,83.75,83.78,83.73,83.73,1800
96,83.78,83.78,83.76,83.77,2700
97,83.72,83.79,83.7132,83.762,6005
98,83.68,83.7399,83.67,83.72,3690
99,83.69,83.74,83.685,83.685,1725
100,83.76,83.76,83.69,83.69,2253
101,83.75,83.78,83.74,83.78,3123
102,83.744,83.76,83.73,83.76,4107
103,83.71,83.74,83.71,83.74,3640
104,83.74,83.75,83.69,83.72,3974
105,83.78,83.79,83.72,83.72,5010
106,83.8,83.81,83.77,83.77,2722
107,83.8,83.81,83.76,83.81,30693
108,83.9,83.91,83.8,83.8,5117
109,83.86,83.92,83.85,83.92,4385
110,83.84,83.88,83.81,83.88,5100
111,83.87,83.88,83.86,83.88,2305
112,83.84,83.87,83.8,83.86,7737
113,83.83,83.845,83.79,83.845,3100
114,83.73,83.8,83.72,83.8,3000
115,83.82,83.82,83.72,83.72,1898
116,83.8,83.82,83.78,83.82,4075
117,83.93,83.93,83.815,83.815,3000
118,83.92,83.9598,83.91,83.93,4615
119,83.88,83.97,83.875,83.93,8200
120,83.95,84,83.89,83.89,4585
121,84.06,84.07,83.93,83.95,16271
122,84.09,84.11,84.02,84.07,6700
123,84.12,84.12,84.07,84.07,7328
124,84,84.13,84,84.12,6781
125,84.01,84.02,83.99,84.0089,4200
126,84.01,84.04,83.98,83.98,12972
127,84.03,84.09,84,84.01,4701
128,84.02,84.03,83.995,84.03,3600
129,84.08,84.08,84.02,84.02,3200
130,84.03,84.14,84.03,84.08,3550
131,83.98,84.08,83.98,84.06,5880
132,83.99,84,83.965,84,4401
133,84,84.01,83.98,83.98,2600
134,84.065,84.16,83.995,83.995,14490
135,84.075,84.11,84.06,84.08,10270
136,84.09,84.1,84.065,84.09,3700
137,84.09,84.11,84.07,84.08,4800
138,84.14,84.16,84.1,84.11,19279
139,84.226,84.24,84.15,84.155,8966
140,84.3,84.3,84.25,84.26,1537
141,84.22,84.2701,84.2,84.2701,3811
142,84.13,84.2,84.13,84.2,2165
143,84.21,84.21,84.12,84.14,4301
144,84.25,84.28,84.19,84.24,8100
145,84.22,84.27,84.22,84.26,2761
146,84.15,84.23,84.15,84.23,6300
147,84.22,84.22,84.14,84.17,8400
148,84.17,84.24,84.17,84.23,8085
149,84.21,84.21,84.16,84.16,13550
150,84.25,84.29,84.21,84.21,32687
151,84.23,84.25,84.17,84.25,5701
152,84.21,84.22,84.18,84.22,5600
153,84.18,84.24,84.18,84.2,5057
154,84.1299,84.19,84.11,84.18,13525
155,84.18,84.2,84.13,84.14,7970
156,84.2017,84.22,84.19,84.2,2043
157,84.2,84.28,84.2,84.225,2701
158,84.24,84.25,84.2,84.2,1050
159,84.22,84.24,84.21,84.22,2601
160,84.31,84.33,84.23,84.23,3266
161,84.45,84.45,84.34,84.34,17277
162,84.47,84.48,84.43,84.4406,16935
163,84.49,84.52,84.47,84.48,8259
164,84.51,84.52,84.48,84.48,3400
165,84.5,84.54,84.5,84.51,2775
166,84.49,84.52,84.45,84.49,4398
167,84.43,84.48,84.43,84.48,4603
168,84.37,84.44,84.37,84.43,3500
169,84.4,84.42,84.36,84.36,4709
170,84.47,84.47,84.39,84.4,6310
171,84.43,84.5,84.43,84.46,12294
172,84.3,84.43,84.3,84.43,9579
173,84.24,84.3,84.23,84.3,3260
174,84.21,84.25,84.16,84.23,5923
175,84.21,84.22,84.18,84.2072,3276
176,84.22,84.25,84.22,84.22,1100
177,84.24,84.25,84.225,84.24,4500
178,84.29,84.29,84.245,84.25,10064
179,84.26,84.31,84.23,84.3,9008
180,84.27,84.28,84.27,84.28,900
181,84.25,84.27,84.23,84.265,2735
182,84.22,84.23,84.21,84.22,1635
183,84.265,84.28,84.2373,84.25,1275
184,84.32,84.36,84.28,84.28,3662
185,84.32,84.37,84.31,84.34,1700
186,84.26,84.3,84.25,84.3,4284
187,84.3,84.31,84.27,84.28,4474
188,84.23,84.28,84.23,84.28,2629
189,84.24,84.24,84.2,84.23,5002
190,84.3,84.3,84.22,84.23,3000
191,84.28,84.31,84.26,84.28,3100
192,84.32,84.33,84.24,84.26,4900
193,84.36,84.36,84.31,84.31,2200
194,84.23,84.34,84.2,84.33,7739
195,84.25,84.25,84.22,84.23,4499
196,84.2048,84.26,84.2,84.25,4330
197,84.22,84.22,84.16,84.205,10284
198,84.21,84.23,84.19,84.22,3235
199,84.18,84.24,84.17,84.21,3780
200,84.22,84.22,84.16,84.16,2027
201,84.22,84.27,84.21,84.22,5697
202,84.23,84.23,84.19,84.19,5777
203,84.23,84.28,84.22,84.22,4998
204,84.2425,84.25,84.2,84.24,7033
205,84.14,84.25,84.14,84.22,8707
206,84.1532,84.19,84.1532,84.155,4651
207,84.13,84.17,84.1284,84.17,4189
208,84.12,84.14,84.1,84.14,6171
209,83.97,84.12,83.97,84.1,6191
210,84.05,84.05,84,84,2935
211,83.96,84.14,83.96,84.09,4834
212,83.92,83.96,83.9,83.95,3018
213,83.95,83.96,83.9089,83.94,2235
214,83.95,83.97,83.94,83.96,815
215,84.04,84.04,83.95,83.95,1400
216,83.97,84.025,83.97,84.025,2149
217,83.97,83.99,83.96,83.96,635
218,83.931,83.99,83.931,83.98,6113
219,83.88,83.94,83.88,83.93,3351
220,83.9,83.915,83.88,83.89,3134
221,83.92,83.92,83.89,83.91,1113
222,83.97,83.97,83.92,83.92,1447
223,83.95,83.97,83.95,83.96,2525
224,83.85,83.94,83.85,83.94,2470
225,83.81,83.87,83.81,83.84,2916
226,83.89,83.9032,83.82,83.82,3137
227,83.9,83.9,83.875,83.88,400
228,83.84,83.9,83.84,83.89,1662
229,83.85,83.9,83.83,83.85,1922
230,83.77,83.85,83.77,83.83,2517
231,83.78,83.8,83.75,83.76,2691
232,83.81,83.84,83.77,83.7964,2500
233,83.72,83.786,83.72,83.786,1928
234,83.72,83.72,83.6753,83.7046,1748
235,83.69,83.7,83.6525,83.7,1500
236,83.7001,83.74,83.65,83.65,4275
237,83.69,83.71,83.69,83.7,500
238,83.65,83.69,83.64,83.68,2804
239,83.68,83.7085,83.66,83.66,4710
240,83.66,83.6712,83.64,83.64,1903
241,83.67,83.68,83.64,83.65,3026
242,83.65,83.6626,83.65,83.6626,767
243,83.71,83.74,83.665,83.67,2102
244,83.7,83.711,83.7,83.71,801
245,83.64,83.71,83.62,83.71,5654
246,83.6301,83.6301,83.62,83.62,1329
247,83.625,83.63,83.625,83.63,200
248,83.52,83.611,83.52,83.61,1869
249,83.46,83.54,83.45,83.52,3995
250,83.46,83.49,83.45,83.45,1644
251,83.44,83.44,83.415,83.44,1813
252,83.55,83.55,83.45,83.45,3050
253,83.655,83.655,83.58,83.59,1720
254,83.67,83.67,83.62,83.66,3800
255,83.735,83.74,83.61,83.64,4199
256,83.75,83.79,83.7487,83.75,4350
257,83.7946,83.81,83.74,83.74,1698
258,83.7844,83.8,83.78,83.8,900
259,83.79,83.83,83.79,83.8,2100
260,83.79,83.8,83.78,83.785,900
261,83.8003,83.81,83.79,83.79,2341
262,83.76,83.81,83.75,83.8,5801
263,83.8,83.815,83.76,83.77,1800
264,83.88,83.88,83.79,83.7959,1230
265,83.8552,83.87,83.84,83.87,8618
266,83.89,83.91,83.88,83.88,1268
267,83.89,83.91,83.89,83.9,2489
268,83.85,83.8899,83.84,83.8899,3256
269,83.831,83.85,83.82,83.85,10111
270,83.85,83.86,83.85,83.86,400
271,83.905,83.91,83.82,83.86,5665
272,83.85,83.9,83.85,83.9,1200
273,83.85,83.8505,83.83,83.8505,1862
274,83.83,83.84,83.83,83.84,2389
275,83.83,83.84,83.82,83.84,2076
276,83.86,83.9,83.83,83.83,902
277,83.86,83.89,83.85,83.85,2600
278,83.88,83.9031,83.85,83.85,4615
279,83.9389,83.94,83.89,83.89,3500
280,83.95,84,83.94,83.95,4500
281,83.97,83.97,83.94,83.95,1980
282,84.02,84.05,83.985,83.985,1724
283,84.06,84.09,84.01,84.01,3701
284,84.01,84.08,84.01,84.0554,1899
285,84,84.04,83.97,84.04,2695
286,83.93,83.985,83.93,83.985,1175
287,83.96,83.99,83.94,83.94,3600
288,84,84.04,83.97,83.97,2700
289,84,84.06,83.95,84,6566
290,84,84.02,84,84,2367
291,84.03,84.03,84.01,84.01,1600
292,84.05,84.07,84.02,84.02,1838
293,84.07,84.1,84.03,84.04,2200
294,84.0386,84.07,84.02,84.07,3667
295,84.07,84.08,84.02,84.02,2205
296,84.11,84.13,84.07,84.0899,2630
297,84.15,84.15,84.09,84.11,4360
298,84.09,84.14,84.08,84.14,4250
299,84.1,84.15,84.1,84.11,2952
300,84.07,84.08,84.06,84.08,700
301,84.05,84.08,84.05,84.08,1109
302,84,84.05,84,84.05,2108
303,83.98,84.05,83.98,84,2550
304,83.93,84.01,83.93,83.97,1632
305,83.95,83.96,83.95,83.96,500
306,83.99,84.0152,83.99,84,3315
307,84,84.01,83.98,84,1600
308,84,84.03,83.99,84.01,3747
309,83.99,84.04,83.9888,83.9888,6879
310,83.995,84,83.95,83.99,4006
311,83.9884,83.99,83.97,83.99,1443
312,84.03,84.04,83.98,83.98,1350
313,84.005,84.04,83.99,84.04,3210
314,83.99,84,83.99,84,700
315,84.02,84.04,83.99,84,2672
316,84.04,84.04,84.02,84.02,500
317,84,84.03,84,84.03,3100
318,83.95,84,83.95,84,2320
319,83.95,83.97,83.94,83.94,3700
320,83.99,83.99,83.94,83.95,1312
321,83.99,84,83.97,84,2373
322,83.97,83.98,83.95,83.98,2524
323,83.98,83.98,83.965,83.98,1400
324,83.995,84.01,83.98,83.98,300
325,84,84.02,83.99,84.01,1834
326,84,84.01,83.99,83.99,2950
327,83.97,84,83.965,84,2667
328,83.97,83.98,83.97,83.97,1200
329,83.96,83.98,83.96,83.96,2214
330,84,84.02,83.95,83.95,2100
331,84,84.0102,83.99,84.005,1604
332,84,84.01,83.97,83.99,3705
333,83.99,84.01,83.97,83.9801,4100
334,83.99,84.01,83.99,84,2300
335,84.02,84.05,83.99,83.99,2764
336,84.04,84.04,84.01,84.02,1954
337,84.02,84.055,84.02,84.04,4944
338,84.07,84.07,84.02,84.02,3385
339,84.05,84.07,84.05,84.07,5581
340,84.02,84.04,84.02,84.04,2262
341,84,84.03,83.99,84.02,5190
342,84.05,84.05,83.99,84,2278
343,84.04,84.04,84.015,84.04,2568
344,84.05,84.05,84.03,84.03,700
345,84.04,84.06,84.04,84.06,4137
346,84.02,84.035,84.01,84.03,3776
347,83.97,84.04,83.97,84.01,14510
348,83.97,84.05,83.942,83.96,14318
349,83.96,83.98,83.96,83.961,3500
350,83.97,83.99,83.96,83.98,4421
351,83.99,83.99,83.95,83.96,18643
352,83.98,83.99,83.96,83.98,4147
353,83.99,83.99,83.96,83.98,2500
354,84.02,84.02,83.99,84,1595
355,84.07,84.07,84.02,84.02,2765
356,84.11,84.11,84.07,84.07,2400
357,84.09,84.105,84.08,84.1,3200
358,84.14,84.14,84.08,84.09,5397
359,84.1483,84.16,84.13,84.13,2874
360,84.14,84.16,84.13,84.16,6138
361,84.11,84.14,84.1,84.14,3700
362,84.11,84.12,84.09,84.12,2903
363,84.12,84.125,84.1,84.1,4381
364,84.13,84.17,84.11,84.12,5507
365,84.09,84.12,84.09,84.12,4300
366,84.13,84.15,84.11,84.11,4823
367,84.15,84.15,84.1,84.12,4719
368,84.169,84.169,84.11,84.14,5181
369,84.1378,84.16,84.12,84.16,4721
370,84.1,84.14,84.09,84.135,5558
371,84.1,84.109,84.07,84.1,4536
372,84.1,84.13,84.09,84.1061,5126
373,84.08,84.11,84.08,84.1,4256
374,84.1,84.1,84.05,84.08,13664
375,84.185,84.185,84.08,84.08,11678
376,84.23,84.23,84.18,84.2,25868
377,84.2075,84.23,84.195,84.22,26436
378,84.22,84.22,84.19,84.2,7916
379,84.17,84.215,84.17,84.21,11533
380,84.18,84.21,84.1775,84.18,11177
381,84.15,84.19,84.14,84.185,8816
382,84.195,84.2,84.15,84.15,11846
383,84.185,84.2,84.15,84.2,14596
384,84.19,84.2,84.17,84.19,17610
385,84.11,84.185,84.09,84.185,28248
386,84.125,84.14,84.06,84.105,24652
387,84.07,84.16,84.07,84.13,21827
388,84.14,84.15,84.08,84.0899,52039
389,84.08,84.15,84.07,84.1399,53698
