EOG,EOG Resources,Energy,3,Oil & Gas Exploration & Production,54921324452,3234237
a1501507800,95.32,95.32,95.32,95.32,13547
1,95.08,95.08,95.05,95.08,1471
2,95.18,95.19,95.13,95.19,300
3,95.23,95.25,95.14,95.17,4727
4,95.172,95.28,95.15,95.24,2062
5,95.28,95.28,95.13,95.15,11281
6,94.94,95.25,94.91,95.23,5634
7,95.22,95.22,94.95,95,4200
8,95.15,95.26,95.15,95.17,3867
9,95.16,95.19,95.05,95.12,10766
10,95.09,95.135,95.09,95.135,400
11,95.0208,95.13,95,95.12,6900
12,95.14,95.15,95.02,95.05,1800
13,95.1,95.175,95.06,95.13,2300
14,95.18,95.19,95.07,95.1,2070
15,95.25,95.25,95.17,95.19,4827
16,95.26,95.27,95.19,95.25,1600
17,95.22,95.29,95.19,95.27,2300
18,95.07,95.26,95.06,95.23,6000
19,95.18,95.18,95.03,95.05,5194
20,95.22,95.22,95.13,95.19,4400
21,95.08,95.23,95.02,95.205,5900
22,95.2,95.22,95.08,95.08,3145
23,95.18,95.25,95.16,95.23,3100
24,95.24,95.3,95.22,95.24,3700
25,95.22,95.24,95.19,95.21,2075
26,95.23,95.24,95.19,95.23,1900
27,95.18,95.21,95.17,95.21,1100
28,95.24,95.24,95.13,95.17,3100
29,95.26,95.26,95.18,95.2,3700
30,95.22,95.255,95.19,95.255,3150
31,95.26,95.26,95.21,95.23,3047
32,95.2,95.26,95.18,95.26,7101
33,95.17,95.225,95.15,95.225,2600
34,95.16,95.22,95.15,95.2,4800
35,95.145,95.15,95.11,95.15,2070
36,95.22,95.22,95.155,95.155,1700
37,95.2499,95.26,95.21,95.21,2300
38,95.44,95.44,95.24,95.24,4970
39,95.485,95.5,95.42,95.44,3642
40,95.51,95.51,95.46,95.46,2900
41,95.5,95.5,95.45,95.4801,2140
42,95.38,95.47,95.38,95.47,5682
43,95.37,95.46,95.34,95.39,4711
44,95.41,95.46,95.36,95.36,4184
45,95.375,95.405,95.325,95.405,2550
46,95.41,95.43,95.34,95.41,3304
47,95.36,95.435,95.36,95.415,2100
48,95.37,95.39,95.34,95.365,4199
49,95.5,95.5,95.38,95.38,1856
50,95.435,95.51,95.42,95.51,3600
51,95.37,95.44,95.37,95.41,4000
52,95.37,95.38,95.32,95.33,4100
53,95.32,95.36,95.32,95.34,2500
54,95.3,95.36,95.28,95.32,4125
55,95.21,95.29,95.21,95.29,2970
56,95.2,95.24,95.185,95.23,2000
57,95.21,95.22,95.17,95.19,3765
58,95.21,95.23,95.19,95.22,1370
59,95.28,95.28,95.21,95.21,1972
60,95.23,95.28,95.22,95.25,5988
61,95.23,95.26,95.21,95.225,2248
62,95.215,95.26,95.21,95.23,4627
63,95.155,95.23,95.12,95.23,7893
64,95.155,95.18,95.135,95.17,4012
65,95.135,95.18,95.12,95.16,6849
66,95.14,95.15,95.12,95.15,5676
67,95.16,95.21,95.12,95.14,6100
68,95.2,95.2,95.13,95.16,5078
69,95.22,95.24,95.185,95.185,2141
70,95.29,95.3,95.23,95.23,1001
71,95.28,95.3,95.27,95.3,2600
72,95.27,95.32,95.27,95.29,4131
73,95.22,95.32,95.22,95.26,3792
74,95.19,95.24,95.1807,95.23,2903
75,95.215,95.215,95.18,95.19,4601
76,95.21,95.215,95.17,95.19,2747
77,95.18,95.21,95.17,95.195,2143
78,95.1121,95.17,95.11,95.17,4481
79,95.06,95.11,95.06,95.09,1700
80,95.055,95.06,95.02,95.06,5365
81,94.99,95.1,94.99,95.05,32152
82,94.94,95.02,94.94,95.01,5117
83,94.89,94.96,94.84,94.96,5206
84,94.87,94.9,94.82,94.87,7350
85,94.85,94.87,94.82,94.85,3000
86,94.8,94.85,94.77,94.85,2109
87,94.84,94.84,94.795,94.795,11700
88,94.84,94.845,94.8,94.845,2700
89,94.9112,94.94,94.84,94.86,10834
90,95.03,95.03,94.93,94.93,9719
91,94.965,95.05,94.95,95.02,11138
92,95.055,95.06,94.98,94.98,2000
93,95.07,95.09,95.05,95.07,3887
94,95,95.08,95,95.055,4750
95,95.08,95.08,95.015,95.015,3417
96,95.01,95.06,95.01,95.06,5183
97,95.01,95.03,94.98,95.02,5236
98,94.97,95.0053,94.96,95.005,3106
99,94.96,94.97,94.94,94.97,3784
100,95.025,95.025,94.97,94.97,3323
101,95.04,95.0592,95.035,95.04,1732
102,94.99,95.06,94.9801,95.02,5096
103,95.0201,95.05,95,95,2833
104,95.02,95.065,95.02,95.05,3923
105,95.005,95.02,94.94,95.02,5667
106,94.99,95.01,94.97,95.01,4863
107,95.01,95.01,94.99,95,1350
108,95.01,95.02,94.99,94.99,2020
109,95.05,95.05,95.01,95.01,1314
110,95.04,95.06,95.03,95.06,3000
111,95.02,95.05,95.02,95.05,2403
112,94.99,95.02,94.97,95.01,7811
113,95.02,95.04,94.99,94.99,3914
114,95.03,95.055,95.01,95.025,3550
115,94.99,95.04,94.985,95.04,5900
116,94.92,95,94.92,95,5578
117,94.93,94.97,94.9,94.91,3400
118,94.92,94.92,94.9,94.91,1442
119,94.95,94.99,94.9,94.91,3770
120,94.99,95.01,94.9546,94.96,1100
121,95.02,95.02,94.99,95.01,3391
122,95.05,95.055,95.035,95.035,1735
123,95.04,95.08,95.04,95.05,3350
124,95.05,95.05,95.0332,95.0332,600
125,95.06,95.06,95.04,95.0577,1095
126,95.13,95.15,95.07,95.07,5900
127,95.15,95.15,95.12,95.135,2600
128,95.17,95.17,95.13,95.13,2650
129,95.23,95.23,95.17,95.17,3210
130,95.21,95.2212,95.2,95.2212,2441
131,95.225,95.23,95.21,95.225,1300
132,95.16,95.24,95.16,95.225,5537
133,95.14,95.1534,95.12,95.12,1404
134,95.1,95.12,95.1,95.12,2100
135,95.09,95.09,95.07,95.09,1950
136,95.13,95.13,95.09,95.09,3670
137,95.15,95.15,95.1001,95.1001,2386
138,95.08,95.13,95.08,95.13,4713
139,95.11,95.11,95.06,95.075,2588
140,95.13,95.14,95.1,95.12,1635
141,95.16,95.17,95.13,95.13,1630
142,95.165,95.18,95.16,95.165,1400
143,95.09,95.15,95.07,95.15,4598
144,95.1,95.12,95.09,95.11,5563
145,95.13,95.14,95.11,95.11,1200
146,95.13,95.18,95.12,95.13,13800
147,95.105,95.12,95.09,95.12,2823
148,95.08,95.09,95.08,95.09,2258
149,95.15,95.15,95.09,95.1,3224
150,95.15,95.18,95.13,95.16,7703
151,95.07,95.14,95.07,95.14,7230
152,95.04,95.09,95.04,95.075,5025
153,95.02,95.04,95.02,95.04,1383
154,95.05,95.06,95.03,95.04,3964
155,95.045,95.06,95.03,95.04,1900
156,95.0896,95.09,95.05,95.06,5591
157,95.09,95.1,95.07,95.1,3246
158,95.1,95.1,95.06,95.09,2793
159,95.02,95.1,95.02,95.09,4800
160,95.01,95.03,95,95.02,4351
161,95.02,95.04,95.0102,95.04,4442
162,95.035,95.035,95.005,95.02,3400
163,95.065,95.065,95.03,95.04,680
164,95.06,95.08,95.04,95.08,15900
165,95.045,95.06,95.035,95.06,2333
166,95.0456,95.07,95.04,95.05,3220
167,95.055,95.07,95.03,95.05,6800
168,95.075,95.1,95.055,95.055,2700
169,95.05,95.065,95.05,95.065,1500
170,95.04,95.05,95.03,95.05,3812
171,95,95.065,95,95.065,3741
172,94.95,95.01,94.93,95,8392
173,94.98,95,94.95,94.97,2300
174,94.955,94.97,94.95,94.97,1700
175,94.93,94.95,94.93,94.95,1530
176,94.955,94.96,94.93,94.93,4106
177,94.96,94.975,94.94,94.955,1187
178,94.96,94.98,94.95,94.95,2162
179,94.95,94.97,94.95,94.96,2933
180,94.98,94.99,94.94,94.96,4207
181,95,95.01,94.99,94.99,2270
182,95.04,95.04,95,95,1300
183,95.02,95.04,95.02,95.03,1100
184,95,95.02,95,95.02,3020
185,94.995,95.01,94.99,95.005,2230
186,94.99,95,94.98,95,4605
187,95.02,95.0365,95,95,6055
188,95.06,95.06,95.02,95.03,1700
189,95.08,95.08,95.07,95.07,1800
190,95.055,95.07,95.04,95.07,4239
191,95.03,95.07,95.03,95.07,1700
192,95.07,95.07,95.03,95.04,4991
193,95.125,95.15,95.09,95.09,11598
194,95.125,95.14,95.12,95.14,1967
195,95.1,95.14,95.1,95.14,2000
196,95.105,95.11,95.1,95.11,2100
197,95.05,95.1,95.05,95.1,5404
198,95.11,95.12,95.055,95.055,2050
199,95.105,95.13,95.1,95.13,1621
200,95.1,95.12,95.07,95.1141,1450
201,95.1,95.1,95.1,95.1,200
202,95.19,95.21,95.1,95.12,4092
203,95.225,95.23,95.2,95.21,2400
204,95.22,95.22,95.205,95.21,1100
205,95.14,95.23,95.14,95.23,3234
206,95.15,95.17,95.14,95.16,800
207,95.19,95.19,95.165,95.165,1500
208,95.18,95.21,95.18,95.21,2100
209,95.215,95.23,95.1863,95.1863,1700
210,95.18,95.22,95.17,95.215,1476
211,95.2,95.2,95.165,95.165,1050
212,95.2,95.24,95.2,95.22,2151
213,95.185,95.21,95.185,95.19,1600
214,95.18,95.2,95.18,95.185,600
215,95.18,95.18,95.17,95.175,1000
216,95.19,95.205,95.18,95.18,2056
217,95.2,95.22,95.19,95.195,3604
218,95.18,95.2,95.18,95.19,2000
219,95.18,95.19,95.18,95.18,3353
220,95.1808,95.19,95.18,95.19,600
221,95.155,95.19,95.15,95.19,5796
222,95.1589,95.1624,95.15,95.16,3575
223,95.14,95.17,95.14,95.16,2000
224,95.1,95.12,95.1,95.12,1750
225,95.06,95.1,95.06,95.09,3470
226,95.03,95.065,95.03,95.065,2484
227,95.06,95.08,95.04,95.05,9983
228,95.07,95.08,95.05,95.08,4500
229,95.08,95.08,95.07,95.07,700
230,95.125,95.13,95.09,95.1,3623
231,95.11,95.14,95.11,95.11,5260
232,95.09,95.11,95.09,95.1,2802
233,95.09,95.105,95.08,95.09,2460
234,95.14,95.15,95.1,95.12,2000
235,95.185,95.185,95.14,95.1472,1843
236,95.14,95.2,95.14,95.2,3900
237,95.14,95.185,95.14,95.17,2600
238,95.14,95.155,95.14,95.14,1500
239,95.11,95.1455,95.11,95.13,2086
240,95.13,95.16,95.125,95.14,3080
241,95.13,95.15,95.13,95.13,4572
242,95.17,95.19,95.12,95.135,13129
243,95.18,95.19,95.16,95.17,1912
244,95.2,95.2,95.16,95.18,3283
245,95.24,95.24,95.21,95.21,2176
246,95.24,95.25,95.23,95.235,3373
247,95.3,95.31,95.25,95.25,4071
248,95.355,95.37,95.3,95.31,4405
249,95.35,95.37,95.34,95.36,3442
250,95.36,95.39,95.355,95.355,3350
251,95.37,95.37,95.35,95.35,1736
252,95.38,95.38,95.35,95.365,1800
253,95.45,95.45,95.39,95.39,1700
254,95.49,95.49,95.45,95.46,3349
255,95.515,95.54,95.49,95.49,2100
256,95.53,95.53,95.51,95.53,3044
257,95.49,95.53,95.49,95.52,4279
258,95.535,95.535,95.49,95.5,2820
259,95.51,95.535,95.5,95.52,2718
260,95.49,95.54,95.49,95.51,3700
261,95.495,95.5,95.495,95.5,200
262,95.53,95.53,95.5,95.51,1400
263,95.46,95.529,95.43,95.515,5855
264,95.43,95.47,95.42,95.455,3126
265,95.4428,95.469,95.41,95.41,2248
266,95.435,95.4522,95.43,95.43,3664
267,95.425,95.44,95.405,95.44,5626
268,95.391,95.44,95.391,95.425,3451
269,95.39,95.4,95.39,95.39,1702
270,95.41,95.41,95.395,95.4,1649
271,95.35,95.41,95.35,95.41,7065
272,95.31,95.37,95.31,95.36,4101
273,95.295,95.33,95.295,95.315,2600
274,95.32,95.325,95.3,95.3,2886
275,95.47,95.47,95.29,95.32,12340
276,95.53,95.54,95.45,95.45,5830
277,95.58,95.62,95.53,95.53,2969
278,95.59,95.63,95.59,95.61,4409
279,95.59,95.6,95.5593,95.58,3340
280,95.685,95.7,95.59,95.59,3781
281,95.655,95.71,95.65,95.695,3853
282,95.625,95.655,95.6,95.655,2801
283,95.62,95.66,95.62,95.64,2000
284,95.58,95.64,95.58,95.63,4150
285,95.61,95.63,95.56,95.58,5629
286,95.5898,95.63,95.58,95.63,6334
287,95.595,95.62,95.56,95.59,3350
288,95.555,95.595,95.55,95.595,4446
289,95.56,95.56,95.54,95.555,2008
290,95.54,95.55,95.53,95.55,1410
291,95.525,95.56,95.52,95.535,4765
292,95.53,95.54,95.51,95.525,2307
293,95.58,95.58,95.53,95.53,752
294,95.58,95.58,95.56,95.5713,2323
295,95.585,95.61,95.55,95.59,2400
296,95.66,95.68,95.585,95.585,3560
297,95.73,95.75,95.6552,95.6552,4840
298,95.785,95.81,95.7,95.73,7100
299,95.87,95.87,95.81,95.81,3150
300,95.86,95.9,95.825,95.845,13300
301,95.855,95.86,95.84,95.855,2500
302,95.87,95.87,95.825,95.855,13300
303,95.84,95.86,95.82,95.855,3100
304,95.805,95.82,95.78,95.82,3117
305,95.8,95.82,95.8,95.8,1205
306,95.72,95.83,95.7,95.83,3771
307,95.67,95.7,95.67,95.7,2101
308,95.69,95.69,95.68,95.68,1651
309,95.71,95.72,95.69,95.7,3800
310,95.725,95.735,95.71,95.71,2352
311,95.68,95.71,95.66,95.71,4500
312,95.69,95.7,95.66,95.68,4200
313,95.675,95.68,95.66,95.68,3260
314,95.6548,95.68,95.65,95.675,4768
315,95.69,95.7,95.655,95.655,5232
316,95.725,95.725,95.695,95.695,1369
317,95.75,95.76,95.7399,95.74,3000
318,95.74,95.76,95.725,95.75,4100
319,95.745,95.77,95.72,95.72,2717
320,95.7,95.76,95.7,95.76,3769
321,95.76,95.7799,95.71,95.72,4356
322,95.74,95.78,95.73,95.78,4530
323,95.71,95.735,95.71,95.73,1738
324,95.725,95.74,95.705,95.705,2850
325,95.72,95.72,95.71,95.71,1867
326,95.63,95.73,95.63,95.73,4400
327,95.6,95.65,95.59,95.635,2109
328,95.615,95.64,95.6,95.62,3020
329,95.645,95.66,95.6,95.615,3622
330,95.66,95.665,95.645,95.66,8447
331,95.62,95.68,95.59,95.67,4533
332,95.605,95.605,95.59,95.605,700
333,95.58,95.64,95.58,95.61,11377
334,95.55,95.58,95.55,95.58,4113
335,95.47,95.56,95.47,95.56,7733
336,95.49,95.505,95.47,95.471,4499
337,95.505,95.51,95.49,95.495,1445
338,95.5,95.51,95.48,95.505,3459
339,95.4799,95.51,95.4799,95.51,2886
340,95.495,95.495,95.4601,95.47,3350
341,95.53,95.56,95.495,95.495,3869
342,95.55,95.57,95.54,95.54,3300
343,95.58,95.58,95.55,95.55,3700
344,95.61,95.61,95.57,95.57,5500
345,95.575,95.59,95.575,95.59,3693
346,95.52,95.58,95.52,95.58,7699
347,95.53,95.535,95.51,95.51,3000
348,95.53,95.54,95.52,95.53,900
349,95.52,95.54,95.52,95.53,6525
350,95.52,95.53,95.47,95.53,14339
351,95.5,95.53,95.49,95.52,7940
352,95.51,95.53,95.4975,95.4975,4418
353,95.51,95.525,95.5,95.52,2483
354,95.5,95.54,95.5,95.52,7767
355,95.495,95.5,95.481,95.495,7458
356,95.5,95.52,95.49,95.495,6613
357,95.48,95.51,95.47,95.495,6048
358,95.46,95.5,95.46,95.4779,5550
359,95.46,95.46,95.445,95.455,5125
360,95.445,95.46,95.44,95.45,8248
361,95.45,95.47,95.445,95.45,13647
362,95.44,95.455,95.43,95.44,9290
363,95.45,95.47,95.44,95.44,3951
364,95.39,95.45,95.36,95.44,9977
365,95.47,95.475,95.39,95.39,6520
366,95.505,95.51,95.4626,95.4626,9270
367,95.55,95.57,95.51,95.51,7898
368,95.53,95.555,95.53,95.55,6264
369,95.52,95.55,95.52,95.53,6604
370,95.545,95.55,95.525,95.53,6093
371,95.595,95.595,95.53,95.54,7106
372,95.64,95.64,95.59,95.6,11536
373,95.61,95.665,95.61,95.64,11420
374,95.62,95.62,95.565,95.605,8800
375,95.615,95.65,95.605,95.61,14281
376,95.5107,95.625,95.51,95.61,17143
377,95.52,95.55,95.5,95.51,8486
378,95.515,95.55,95.51,95.5299,12963
379,95.49,95.51,95.46,95.5,34502
380,95.49,95.49,95.47,95.48,9700
381,95.51,95.55,95.48,95.49,12362
382,95.49,95.53,95.49,95.53,13431
383,95.455,95.49,95.45,95.49,17037
384,95.455,95.47,95.45,95.455,13949
385,95.47,95.49,95.44,95.455,18511
386,95.44,95.49,95.44,95.48,14241
387,95.37,95.44,95.36,95.44,28872
388,95.29,95.38,95.29,95.37,28239
389,95.24,95.295,95.23,95.29,50583
390,95.19,95.27,95.14,95.25,168492
