PPG,PPG Industries,Materials,8,Specialty Chemicals,26994495792,1327942
a1501507800,106.32,106.32,106.32,106.32,10141
1,106.265,106.265,106.265,106.265,100
2,106.35,106.35,106.35,106.35,400
5,106.32,106.42,106.32,106.42,2041
6,106.26,106.3344,106.26,106.3344,600
7,106.38,106.41,106.28,106.295,1150
8,106.34,106.42,106.33,106.42,1500
9,106.38,106.41,106.36,106.36,400
10,106.41,106.41,106.3501,106.3501,3326
11,106.39,106.45,106.39,106.44,1800
12,106.37,106.39,106.37,106.39,200
13,106.29,106.37,106.28,106.37,2086
14,106.3,106.3,106.27,106.3,811
15,106.25,106.28,106.22,106.28,1500
16,106.22,106.22,106.095,106.095,500
17,106.1872,106.2,106.1872,106.2,217
18,106.21,106.22,106.16,106.2,1304
19,106.24,106.24,106.24,106.24,200
20,106.14,106.32,106.14,106.29,5235
21,106.12,106.22,106.12,106.19,2800
22,106.125,106.16,106.05,106.1,2600
23,106.09,106.11,106.075,106.11,1200
24,105.99,106.12,105.98,106.11,4050
25,106.05,106.06,106.01,106.01,2200
26,105.91,106.08,105.9,106.07,3163
27,105.92,105.92,105.92,105.92,200
28,105.88,105.93,105.84,105.93,1900
29,105.81,105.87,105.81,105.83,900
30,105.81,105.88,105.75,105.83,3400
31,105.91,105.91,105.81,105.81,700
32,105.925,105.98,105.9,105.96,1147
33,105.855,105.97,105.85,105.96,2600
34,105.87,105.88,105.82,105.85,2300
35,105.79,105.85,105.79,105.85,500
36,105.8,105.84,105.77,105.82,2227
37,105.77,105.8,105.77,105.8,1600
38,105.89,105.89,105.79,105.79,1300
39,105.91,105.94,105.9,105.9,1150
40,105.86,105.93,105.86,105.93,2045
41,105.83,105.86,105.83,105.84,3000
42,105.77,105.84,105.77,105.83,1200
43,105.78,105.8,105.76,105.76,2704
44,105.805,105.83,105.8,105.8,999
45,105.7501,105.8,105.7501,105.8,1046
46,105.69,105.77,105.69,105.77,1400
47,105.69,105.69,105.63,105.66,1750
48,105.57,105.72,105.57,105.72,1500
49,105.67,105.67,105.5582,105.59,1295
52,105.7,105.7,105.7,105.7,200
53,105.59,105.7,105.59,105.7,1650
54,105.62,105.62,105.59,105.62,1000
55,105.66,105.66,105.66,105.66,100
57,105.69,105.69,105.69,105.69,200
58,105.69,105.69,105.69,105.69,100
59,105.74,105.74,105.67,105.68,1500
60,105.75,105.76,105.75,105.76,200
61,105.83,105.83,105.74,105.74,3500
62,105.76,105.82,105.72,105.815,7300
63,105.75,105.79,105.75,105.79,700
64,105.77,105.79,105.7675,105.78,1800
65,105.75,105.75,105.74,105.75,700
68,105.76,105.76,105.74,105.74,1300
69,105.805,105.805,105.76,105.77,500
70,105.83,105.83,105.81,105.81,400
71,105.745,105.8,105.66,105.79,6736
72,105.7,105.75,105.7,105.75,600
73,105.68,105.68,105.67,105.67,500
74,105.6704,105.6704,105.6704,105.6704,800
75,105.74,105.74,105.71,105.71,900
76,105.77,105.77,105.75,105.76,600
77,105.81,105.81,105.75,105.78,900
78,105.74,105.795,105.73,105.77,1341
79,105.755,105.77,105.755,105.76,900
80,105.73,105.74,105.73,105.74,500
81,105.615,105.705,105.61,105.705,1500
82,105.64,105.64,105.64,105.64,300
83,105.64,105.64,105.605,105.605,200
84,105.63,105.66,105.63,105.64,1400
85,105.61,105.61,105.61,105.61,450
87,105.58,105.61,105.58,105.6,550
88,105.505,105.6,105.5,105.58,5018
89,105.49,105.52,105.49,105.5,2312
90,105.5,105.52,105.5,105.52,2000
91,105.46,105.5118,105.46,105.49,2426
92,105.49,105.49,105.45,105.45,1174
93,105.47,105.4988,105.44,105.4988,2446
94,105.5508,105.5508,105.48,105.48,560
95,105.54,105.545,105.53,105.545,1200
96,105.48,105.53,105.48,105.53,2900
97,105.46,105.46,105.46,105.46,100
98,105.47,105.49,105.47,105.47,800
99,105.47,105.51,105.47,105.5,3039
100,105.45,105.45,105.44,105.44,1200
101,105.445,105.46,105.43,105.43,500
102,105.46,105.46,105.435,105.45,1500
103,105.44,105.45,105.44,105.45,400
104,105.425,105.46,105.42,105.46,1501
105,105.47,105.47,105.42,105.4298,2090
106,105.48,105.48,105.47,105.47,300
107,105.52,105.52,105.455,105.48,3084
108,105.49,105.52,105.49,105.52,800
109,105.53,105.53,105.5,105.51,3100
110,105.545,105.545,105.52,105.52,700
111,105.51,105.53,105.48,105.53,2800
112,105.5195,105.52,105.5,105.5,1100
113,105.47,105.51,105.47,105.5,5350
114,105.48,105.48,105.47,105.47,1300
115,105.49,105.49,105.49,105.49,200
116,105.48,105.5,105.48,105.48,2201
117,105.48,105.5,105.48,105.5,2200
118,105.5,105.5,105.49,105.49,1228
119,105.51,105.511,105.51,105.511,323
120,105.505,105.53,105.5,105.52,2900
121,105.49,105.5,105.49,105.5,1100
122,105.46,105.47,105.46,105.47,1200
123,105.46,105.46,105.46,105.46,200
124,105.53,105.53,105.4625,105.4625,2500
125,105.51,105.535,105.51,105.52,1681
126,105.525,105.53,105.51,105.51,2300
127,105.51,105.525,105.51,105.52,1300
128,105.51,105.52,105.505,105.505,3720
129,105.48,105.5,105.46,105.5,2200
130,105.505,105.505,105.48,105.48,300
131,105.51,105.51,105.505,105.51,800
132,105.48,105.511,105.48,105.51,1600
134,105.475,105.475,105.475,105.475,100
135,105.51,105.51,105.48,105.49,1850
136,105.53,105.55,105.51,105.51,3797
137,105.5,105.54,105.5,105.54,3300
138,105.48,105.48,105.48,105.48,400
140,105.465,105.465,105.465,105.465,100
141,105.42,105.45,105.41,105.45,1200
143,105.37,105.4,105.35,105.4,3533
145,105.4,105.4,105.365,105.365,1600
146,105.38,105.4,105.38,105.4,300
147,105.34,105.38,105.34,105.38,2300
148,105.35,105.35,105.26,105.32,2900
149,105.32,105.35,105.3,105.31,1791
150,105.33,105.33,105.31,105.31,500
151,105.275,105.31,105.25,105.31,2400
152,105.24,105.27,105.24,105.27,1850
153,105.24,105.25,105.24,105.24,1300
154,105.22,105.25,105.22,105.24,2000
155,105.1869,105.23,105.1869,105.215,1452
156,105.23,105.23,105.17,105.17,1700
157,105.15,105.22,105.15,105.22,1750
158,105.14,105.16,105.14,105.14,1713
159,105.17,105.17,105.15,105.16,1600
160,105.12,105.16,105.12,105.16,2347
161,105.14,105.14,105.12,105.12,1600
162,105.15,105.15,105.14,105.14,400
163,105.17,105.17,105.1652,105.1652,900
164,105.17,105.19,105.14,105.18,3143
165,105.18,105.18,105.17,105.17,300
166,105.2,105.2,105.19,105.19,300
167,105.2,105.2,105.2,105.2,400
168,105.19,105.22,105.19,105.22,1700
169,105.21,105.21,105.19,105.19,1400
170,105.2,105.2,105.2,105.2,761
171,105.2,105.2,105.18,105.18,200
172,105.17,105.17,105.17,105.17,100
174,105.18,105.19,105.175,105.18,1900
175,105.15,105.17,105.15,105.17,1100
176,105.19,105.19,105.15,105.15,1000
177,105.19,105.19,105.19,105.19,998
178,105.185,105.19,105.185,105.19,200
179,105.2,105.2,105.2,105.2,900
180,105.19,105.195,105.18,105.19,1100
181,105.17,105.18,105.17,105.18,600
182,105.16,105.17,105.16,105.17,1610
183,105.14,105.15,105.13,105.15,1400
184,105.1265,105.1265,105.12,105.12,200
185,105.12,105.12,105.12,105.12,400
186,105.115,105.12,105.11,105.12,2400
187,105.11,105.12,105.11,105.12,400
188,105.03,105.11,105.03,105.11,2991
189,105.07,105.07,105.04,105.05,2700
190,105.06,105.06,105.06,105.06,375
191,105.04,105.05,105.01,105.05,2500
192,105.04,105.04,105.04,105.04,617
193,105.07,105.07,105.045,105.045,1729
194,105.04,105.06,105.04,105.06,21300
195,105.05,105.06,105.03,105.0401,4399
196,105.07,105.07,105.03,105.03,1400
197,105.06,105.08,105.06,105.07,500
198,105.06,105.06,105.0556,105.0556,909
199,105.06,105.07,105.06,105.065,1594
200,105.065,105.07,105.06,105.06,3000
201,105.03,105.07,105.03,105.07,5401
202,105.02,105.05,105.02,105.03,3500
203,105.02,105.02,105.02,105.02,700
204,105,105.025,104.99,105.02,4600
205,105.01,105.03,105.01,105.01,1450
206,105.06,105.06,105.04,105.04,2467
207,105.09,105.1,105.06,105.06,2646
208,105.1,105.1,105.08,105.08,1620
209,105.1,105.1,105.095,105.1,657
210,105.11,105.12,105.095,105.1,1520
211,105.13,105.13,105.115,105.12,4007
212,105.15,105.15,105.14,105.14,900
213,105.16,105.17,105.145,105.15,3200
214,105.13,105.19,105.09,105.165,8792
215,105.105,105.14,105.105,105.14,2100
216,105.14,105.14,105.12,105.12,1324
217,105.1,105.16,105.1,105.1412,7210
218,105.14,105.14,105.08,105.1,7389
219,105.13,105.13,105.12,105.1289,576
220,105.14,105.14,105.14,105.14,400
221,105.12,105.15,105.12,105.145,3017
222,105.12,105.13,105.12,105.12,800
223,105.13,105.14,105.13,105.13,500
224,105.14,105.14,105.13,105.13,520
225,105.08,105.13,105.08,105.13,3165
226,105.1,105.1,105.08,105.08,2400
227,105.1,105.1,105.1,105.1,300
228,105.0776,105.09,105.0776,105.09,2239
229,105.08,105.085,105.07,105.07,1996
230,105.08,105.08,105.07,105.07,720
231,105.03,105.08,104.99,105.08,4380
232,105.06,105.06,105.03,105.03,300
233,105.06,105.06,105.03,105.04,2200
234,105.06,105.07,105.04,105.05,2141
235,105.07,105.07,105.05,105.05,700
236,105.06,105.08,105.06,105.08,620
237,105.03,105.0704,105.03,105.0704,2350
238,105.03,105.05,105.03,105.04,1600
239,105.04,105.05,105.04,105.05,600
240,105.055,105.06,105.045,105.05,1800
241,105.12,105.12,105,105.04,17819
242,105.1,105.1,105.075,105.1,2123
243,105.13,105.13,105.1,105.1,2718
244,105.17,105.17,105.145,105.145,2124
245,105.19,105.19,105.15,105.15,2272
246,105.18,105.19,105.17,105.19,4202
247,105.21,105.21,105.18,105.18,1600
248,105.18,105.22,105.17,105.2033,5656
249,105.2,105.21,105.185,105.19,2265
250,105.22,105.22,105.2002,105.22,400
251,105.19,105.22,105.17,105.22,3700
252,105.16,105.165,105.13,105.16,1400
254,105.11,105.16,105.1,105.16,2950
255,105.09,105.11,105.07,105.11,2838
256,105.0838,105.09,105.08,105.09,703
257,105.1,105.11,105.07,105.08,5279
258,105.135,105.14,105.12,105.12,1200
259,105.145,105.145,105.14,105.14,700
260,105.16,105.16,105.145,105.145,797
261,105.18,105.18,105.165,105.17,1837
262,105.23,105.24,105.185,105.19,8388
263,105.3,105.3,105.23,105.235,5999
264,105.32,105.34,105.3136,105.3136,932
265,105.33,105.34,105.32,105.34,1945
266,105.34,105.34,105.33,105.33,500
267,105.31,105.34,105.3,105.33,5010
268,105.31,105.32,105.3025,105.32,2582
269,105.315,105.319,105.31,105.31,700
270,105.31,105.32,105.305,105.31,2415
271,105.31,105.31,105.29,105.3,3792
272,105.325,105.33,105.32,105.32,600
273,105.31,105.33,105.3,105.33,4100
274,105.36,105.36,105.31,105.31,3974
275,105.38,105.38,105.37,105.37,400
276,105.39,105.39,105.38,105.38,900
277,105.4,105.41,105.39,105.3964,1800
278,105.42,105.43,105.39,105.41,8348
279,105.44,105.44,105.43,105.43,1935
280,105.42,105.43,105.42,105.43,2449
281,105.43,105.45,105.42,105.43,2197
282,105.4,105.43,105.4,105.43,4334
283,105.375,105.4,105.375,105.4,2808
284,105.4,105.4,105.37,105.37,1800
285,105.395,105.4,105.39,105.39,2215
286,105.4,105.4,105.39,105.4,1400
287,105.37,105.39,105.37,105.39,5291
288,105.37,105.39,105.37,105.39,700
289,105.375,105.38,105.37,105.37,2613
290,105.38,105.38,105.36,105.36,500
291,105.38,105.38,105.375,105.38,1418
292,105.39,105.39,105.36,105.37,3400
293,105.39,105.39,105.38,105.38,300
294,105.405,105.415,105.385,105.385,6242
295,105.39,105.41,105.36,105.405,12611
296,105.42,105.42,105.395,105.395,2900
297,105.405,105.43,105.4,105.42,4663
298,105.4,105.41,105.39,105.4099,8634
299,105.4,105.41,105.4,105.41,2244
300,105.41,105.41,105.38,105.39,5097
301,105.42,105.425,105.415,105.42,2402
302,105.41,105.42,105.41,105.42,745
303,105.42,105.42,105.41,105.415,600
304,105.39,105.42,105.39,105.41,4175
305,105.39,105.39,105.385,105.39,2987
306,105.33,105.39,105.32,105.39,4268
307,105.32,105.33,105.32,105.3297,1200
308,105.33,105.33,105.33,105.33,100
309,105.32,105.32,105.31,105.32,728
310,105.3175,105.32,105.305,105.31,4263
311,105.3,105.32,105.29,105.31,5673
313,105.31,105.31,105.31,105.31,100
314,105.27,105.34,105.26,105.29,11610
315,105.25,105.25,105.25,105.25,306
316,105.25,105.25,105.24,105.24,800
317,105.21,105.24,105.21,105.24,3070
318,105.1935,105.21,105.19,105.2,2322
319,105.2,105.21,105.185,105.19,2446
320,105.22,105.23,105.22,105.22,500
321,105.26,105.26,105.23,105.23,2321
322,105.24,105.24,105.22,105.24,3952
323,105.24,105.24,105.24,105.24,900
324,105.28,105.28,105.24,105.24,3737
325,105.28,105.28,105.27,105.28,800
326,105.29,105.29,105.28,105.28,2000
327,105.27,105.3,105.27,105.29,4337
328,105.255,105.28,105.24,105.27,5276
329,105.255,105.26,105.255,105.255,1100
330,105.26,105.26,105.255,105.255,200
331,105.22,105.26,105.21,105.26,6203
332,105.25,105.25,105.22,105.23,2999
333,105.23,105.26,105.23,105.25,2420
334,105.25,105.25,105.225,105.23,3005
335,105.24,105.25,105.24,105.25,1700
336,105.24,105.25,105.24,105.24,3599
337,105.24,105.24,105.24,105.24,100
338,105.22,105.23,105.2099,105.23,5551
339,105.18,105.2236,105.18,105.21,3330
340,105.17,105.21,105.165,105.18,5207
341,105.181,105.19,105.17,105.18,2296
342,105.16,105.18,105.16,105.18,2662
343,105.15,105.16,105.13,105.16,4009
344,105.16,105.16,105.14,105.15,2100
345,105.16,105.17,105.15,105.17,900
346,105.16,105.16,105.15,105.155,3330
347,105.18,105.185,105.15,105.15,3300
348,105.17,105.18,105.16,105.175,7235
349,105.16,105.17,105.16,105.165,500
350,105.12,105.16,105.12,105.16,2925
351,105.085,105.13,105.085,105.12,8628
352,105.11,105.12,105.08,105.09,12060
353,105.1,105.12,105.1,105.12,800
354,105.1,105.11,105.09,105.09,4600
355,105.1,105.11,105.08,105.105,7078
356,105.09,105.11,105.085,105.1,7434
357,105.08,105.11,105.08,105.09,5600
358,105.08,105.09,105.08,105.08,2450
359,105.055,105.08,105.04,105.08,4402
360,105.07,105.07,105.06,105.06,2200
361,105.04,105.07,105.04,105.065,7289
362,105.055,105.06,105.045,105.045,3700
363,105.05,105.06,105.05,105.06,3291
364,105.065,105.07,105.055,105.06,4054
365,105.09,105.09,105.065,105.07,6743
366,105.1,105.11,105.09,105.1,7711
367,105.1075,105.11,105.1,105.11,7176
368,105.09,105.12,105.09,105.11,15688
369,105.03,105.09,105.03,105.09,12985
370,105.025,105.04,105,105.035,16666
371,105.035,105.04,105.02,105.025,4105
372,105.03,105.04,105.025,105.035,17899
373,105.1,105.1,105.04,105.04,4951
374,105.12,105.12,105.09,105.1,6562
375,105.155,105.19,105.12,105.12,5996
376,105.24,105.26,105.16,105.16,12002
377,105.3,105.31,105.25,105.26,13073
378,105.31,105.31,105.3,105.3,4500
379,105.31,105.32,105.3,105.3,10995
380,105.34,105.36,105.315,105.32,14212
381,105.37,105.39,105.34,105.34,11266
382,105.44,105.44,105.365,105.37,10600
383,105.47,105.49,105.43,105.44,17945
384,105.48,105.5,105.46,105.47,17790
385,105.5,105.51,105.47,105.48,20033
386,105.5,105.51,105.5,105.5,33215
387,105.45,105.51,105.45,105.5,26436
388,105.41,105.46,105.4,105.45,19913
389,105.32,105.4,105.32,105.4,18131
390,105.26,105.32,105.21,105.32,51712
