EOG,EOG Resources,Energy,3,Oil & Gas Exploration & Production,51462180358,3369462
a1502371800,90.63,90.63,90.63,90.63,13456
1,90.87,90.87,90.64,90.75,3700
2,90.82,90.83,90.67,90.67,2067
3,90.9,90.93,90.785,90.79,2800
4,90.82,90.92,90.81,90.8901,800
5,90.8866,90.96,90.81,90.87,4965
6,90.72,90.93,90.72,90.9,4050
7,90.63,90.67,90.6,90.67,1770
8,90.5799,90.5903,90.5,90.5487,4700
9,90.59,90.64,90.55,90.579,2235
10,90.55,90.61,90.51,90.52,3015
11,90.455,90.55,90.43,90.52,10533
12,90.39,90.5,90.38,90.43,3930
13,90.385,90.43,90.32,90.34,9711
14,90.35,90.385,90.29,90.385,2154
15,90.35,90.41,90.35,90.35,6318
16,90.52,90.55,90.35,90.35,7962
17,90.7,90.7,90.4901,90.4901,4000
18,90.73,90.78,90.67,90.71,4050
19,90.66,90.69,90.66,90.69,700
20,90.665,90.69,90.63,90.65,4063
21,90.71,90.71,90.62,90.66,3480
22,90.795,90.8,90.72,90.74,3721
23,90.74,90.77,90.72,90.77,1750
24,90.65,90.71,90.65,90.71,1900
25,90.805,90.805,90.65,90.67,3933
26,90.7,90.83,90.68,90.82,3200
27,90.7,90.75,90.66,90.7,6125
28,90.71,90.75,90.69,90.74,13968
29,90.81,90.81,90.72,90.74,4542
30,90.795,90.82,90.73,90.805,9316
31,90.56,90.795,90.54,90.795,12286
32,90.58,90.62,90.54,90.55,2900
33,90.62,90.65,90.59,90.59,1200
34,90.52,90.65,90.52,90.61,3239
35,90.6,90.64,90.53,90.58,2900
36,90.51,90.59,90.49,90.54,5111
37,90.42,90.5,90.29,90.48,8065
38,90.45,90.54,90.42,90.42,7973
39,90.4541,90.52,90.41,90.45,3722
40,90.35,90.42,90.32,90.42,1704
41,90.16,90.32,90.16,90.32,8582
42,90.18,90.23,90.14,90.2,6200
43,90.2,90.26,90.17,90.18,2500
44,90.2,90.26,90.18,90.2,1900
45,90.16,90.22,90.16,90.22,1100
46,90.24,90.28,90.21,90.21,4132
47,90.18,90.25,90.15,90.25,3830
48,90.24,90.26,90.21,90.24,1506
49,90.36,90.36,90.25,90.25,2400
50,90.38,90.41,90.35,90.4,4200
51,90.42,90.42,90.34,90.37,2628
52,90.52,90.52,90.43,90.44,3300
53,90.5,90.55,90.49,90.52,2900
54,90.43,90.51,90.43,90.51,2010
55,90.39,90.48,90.35,90.46,5332
56,90.3,90.36,90.29,90.36,2413
57,90.42,90.42,90.37,90.37,2700
58,90.52,90.52,90.43,90.44,4141
59,90.4928,90.55,90.4928,90.51,1440
60,90.49,90.54,90.44,90.5016,18236
61,90.4299,90.6,90.4,90.5,14753
62,90.24,90.4399,90.24,90.42,15241
63,90.3628,90.3628,90.2727,90.2727,2199
64,90.5,90.5,90.36,90.36,5700
65,90.5654,90.6199,90.5,90.5,6826
66,90.55,90.56,90.49,90.55,3804
67,90.61,90.6125,90.55,90.55,6100
68,90.59,90.6,90.58,90.59,1000
69,90.48,90.58,90.48,90.58,1300
70,90.56,90.6,90.5,90.5,4519
71,90.56,90.64,90.52,90.56,6058
72,90.46,90.55,90.46,90.53,2701
73,90.47,90.47,90.43,90.45,5610
74,90.58,90.59,90.45,90.45,4600
75,90.57,90.63,90.54,90.605,4700
76,90.51,90.57,90.51,90.57,2920
77,90.5,90.52,90.495,90.51,5400
78,90.49,90.56,90.46,90.55,5360
79,90.44,90.5,90.43,90.49,3216
80,90.37,90.44,90.36,90.4301,3900
81,90.34,90.37,90.34,90.35,4200
82,90.4,90.4,90.32,90.33,4814
83,90.39,90.39,90.34,90.36,4700
84,90.45,90.47,90.39,90.39,2900
85,90.4,90.4599,90.39,90.4599,5463
86,90.4,90.41,90.36,90.4,4455
87,90.32,90.39,90.32,90.36,2069
88,90.39,90.39,90.3464,90.3464,6400
89,90.4,90.49,90.39,90.39,6253
90,90.34,90.38,90.34,90.36,2342
91,90.39,90.39,90.31,90.33,5269
92,90.39,90.42,90.36,90.395,2832
93,90.33,90.37,90.32,90.37,1005
94,90.3635,90.365,90.33,90.34,5567
95,90.3,90.39,90.3,90.375,5367
96,90.35,90.365,90.3,90.32,4487
97,90.35,90.36,90.28,90.35,7896
98,90.33,90.37,90.33,90.35,5803
99,90.31,90.36,90.28,90.33,17614
100,90.34,90.37,90.33,90.34,2100
101,90.32,90.32,90.32,90.32,200
102,90.31,90.315,90.29,90.3,3573
103,90.42,90.42,90.31,90.31,4200
104,90.34,90.42,90.34,90.41,1300
105,90.32,90.34,90.24,90.34,8664
106,90.24,90.2999,90.24,90.28,4000
107,90.18,90.24,90.16,90.22,3550
108,90.12,90.18,90.11,90.15,3702
109,90.11,90.13,90.06,90.11,2500
110,90.09,90.1,90.06,90.1,2500
111,90.09,90.1,90.07,90.1,4351
112,90.06,90.09,90.04,90.08,3000
113,90.05,90.08,89.99,90.06,7160
114,90.01,90.028,90.01,90.028,873
115,89.97,90.03,89.92,90.015,5843
116,90,90.04,90,90,1677
117,90.02,90.09,90,90.02,3715
118,90.07,90.11,90.02,90.03,1900
119,90.09,90.1,90.05,90.05,1800
120,90.2,90.2,90.09,90.1122,1900
121,90.21,90.26,90.21,90.23,5460
122,90.21,90.24,90.16,90.22,3700
123,90.21,90.31,90.2,90.22,3100
124,90.21,90.21,90.19,90.21,1100
125,90.17,90.24,90.16,90.18,2900
126,90.1,90.24,90.1,90.18,5045
127,90.19,90.19,90.1,90.1,2360
128,90.1987,90.23,90.16,90.21,1800
129,90.2699,90.2699,90.22,90.22,2425
130,90.19,90.24,90.19,90.23,1400
131,90.1,90.21,90.1,90.2,3050
132,90.16,90.16,90.1,90.1,1699
133,90.09,90.14,90.05,90.14,3951
134,90.15,90.15,90.12,90.12,400
135,90.24,90.27,90.17,90.18,2994
136,90.16,90.23,90.15,90.23,800
137,90.3,90.3125,90.15,90.15,3073
138,90.28,90.35,90.28,90.34,3300
139,90.28,90.29,90.24,90.29,1849
140,90.25,90.279,90.25,90.279,1400
141,90.21,90.25,90.2,90.24,5100
142,90.18,90.24,90.18,90.23,3900
143,90.1301,90.21,90.13,90.2018,5003
144,90.14,90.14,90.09,90.12,4500
145,90.11,90.18,90.11,90.15,3100
146,90.13,90.14,90.07,90.09,4100
148,90.12,90.16,90.12,90.15,7837
149,90.1,90.16,90.1,90.1063,2258
150,90.04,90.09,90.03,90.09,5950
151,89.98,90.02,89.94,90.02,8103
152,89.97,89.99,89.94,89.95,2232
153,90,90,89.97,89.97,3350
154,90,90,89.96,89.96,2300
155,89.93,90.01,89.93,90.01,5387
156,89.91,89.94,89.88,89.93,4650
157,89.97,89.99,89.93,89.93,2200
158,89.91,90,89.9,89.98,4100
159,89.9,89.92,89.86,89.89,2108
160,89.94,89.94,89.86,89.89,3300
161,89.92,89.965,89.89,89.965,2148
162,89.86,89.92,89.85,89.9,5044
163,89.96,89.96,89.86,89.86,1000
164,89.92,89.94,89.88,89.94,1335
165,89.9,89.95,89.9,89.95,800
166,89.9661,89.9661,89.9,89.9,1535
167,89.96,90.01,89.94,89.96,1500
168,89.92,89.95,89.92,89.94,1500
169,89.84,89.92,89.82,89.92,4250
170,89.86,89.86,89.79,89.82,3400
171,89.77,89.86,89.77,89.86,2068
172,89.91,89.94,89.78,89.78,3200
173,89.86,89.91,89.86,89.9,1000
174,89.89,89.91,89.83,89.88,3000
175,89.96,89.99,89.91,89.91,1500
176,89.91,89.94,89.91,89.94,1735
177,89.95,89.95,89.89,89.9,4837
178,89.94,89.94,89.9,89.93,2300
179,89.94,89.95,89.94,89.94,1014
180,89.98,90.02,89.94,89.94,2561
181,90.05,90.09,89.997,89.997,3798
182,90.04,90.07,90.04,90.07,2100
183,90.0694,90.08,90.03,90.06,1760
184,90.051,90.06,90.02,90.06,1900
185,90.03,90.06,90.03,90.06,900
186,90.04,90.04,90,90.01,2100
187,89.96,90.06,89.95,90.06,8155
188,89.86,90.03,89.86,90,9861
189,89.96,90,89.88,89.88,5615
190,89.98,89.98,89.945,89.96,6410
191,89.89,89.965,89.88,89.965,4110
192,89.85,89.9,89.85,89.87,1600
193,89.83,89.85,89.82,89.82,1922
194,89.8,89.8325,89.8,89.83,2611
195,89.72,89.79,89.72,89.79,2526
196,89.72,89.74,89.72,89.74,600
197,89.8,89.8,89.73,89.73,1300
198,89.78,89.81,89.73,89.81,2796
199,89.72,89.77,89.69,89.77,15858
200,89.65,89.77,89.65,89.74,2550
201,89.68,89.68,89.655,89.655,400
202,89.63,89.67,89.61,89.67,1592
203,89.58,89.68,89.571,89.635,3436
204,89.53,89.6,89.52,89.6,10533
205,89.5407,89.56,89.515,89.515,5516
206,89.42,89.56,89.42,89.56,2330
207,89.45,89.49,89.42,89.43,3254
208,89.51,89.51,89.47,89.47,2055
209,89.51,89.52,89.46,89.49,1950
210,89.48,89.51,89.45,89.51,2461
211,89.52,89.54,89.45,89.47,2137
212,89.47,89.53,89.45,89.52,2500
213,89.37,89.45,89.37,89.45,4421
214,89.46,89.46,89.4,89.41,1548
215,89.51,89.52,89.4701,89.48,3806
216,89.48,89.51,89.48,89.48,700
217,89.49,89.49,89.46,89.48,1300
218,89.49,89.49,89.43,89.48,5464
219,89.46,89.46,89.46,89.46,100
220,89.43,89.44,89.41,89.44,5042
221,89.46,89.51,89.45,89.45,3100
222,89.46,89.49,89.46,89.49,931
223,89.49,89.51,89.44,89.46,2265
224,89.52,89.52,89.5,89.52,2015
225,89.52,89.54,89.5,89.53,3500
226,89.58,89.59,89.52,89.52,2632
227,89.71,89.71,89.57,89.5951,6800
228,89.67,89.7,89.67,89.7,1244
229,89.75,89.75,89.66,89.668,2600
230,89.73,89.77,89.72,89.74,2164
231,89.722,89.73,89.7,89.71,2555
232,89.78,89.78,89.74,89.74,1100
233,89.82,89.82,89.76,89.8,5300
234,89.76,89.81,89.76,89.8,700
235,89.77,89.78,89.75,89.76,1762
236,89.76,89.76,89.74,89.76,3667
237,89.76,89.76,89.74,89.75,5100
238,89.8,89.8,89.75,89.75,3530
239,89.82,89.82,89.77,89.79,3401
240,89.77,89.82,89.77,89.81,1500
241,89.75,89.79,89.74,89.79,3400
242,89.75,89.76,89.75,89.75,1860
243,89.71,89.785,89.71,89.76,8400
244,89.735,89.735,89.67,89.73,2300
245,89.77,89.78,89.74,89.74,900
246,89.83,89.83,89.76,89.76,1730
247,89.84,89.84,89.8,89.82,2000
248,89.775,89.83,89.775,89.83,900
249,89.7601,89.79,89.7601,89.77,1896
250,89.78,89.83,89.76,89.79,1900
251,89.71,89.76,89.71,89.76,1400
252,89.64,89.72,89.64,89.71,4264
253,89.59,89.65,89.59,89.62,2462
254,89.54,89.58,89.54,89.58,300
255,89.46,89.55,89.43,89.52,2555
256,89.41,89.45,89.4,89.44,1821
257,89.42,89.45,89.4,89.4,2522
258,89.39,89.39,89.37,89.38,2019
259,89.32,89.35,89.32,89.35,3282
260,89.35,89.35,89.32,89.34,1700
261,89.38,89.38,89.33,89.33,4471
262,89.42,89.43,89.35,89.36,3600
263,89.42,89.42,89.4,89.41,3569
264,89.38,89.41,89.38,89.41,1291
265,89.47,89.47,89.4,89.4,3528
266,89.49,89.49,89.47,89.48,1525
267,89.45,89.46,89.43,89.46,4113
268,89.5,89.52,89.46,89.46,3300
269,89.535,89.55,89.53,89.55,1200
270,89.51,89.53,89.48,89.52,3801
271,89.52,89.52,89.49,89.5,700
272,89.555,89.57,89.5326,89.55,4399
273,89.54,89.58,89.54,89.55,2987
274,89.54,89.57,89.54,89.545,2200
275,89.59,89.59,89.5405,89.5405,3045
276,89.63,89.63,89.6,89.6,11100
277,89.67,89.67,89.61,89.61,5367
278,89.7,89.74,89.68,89.68,1797
279,89.77,89.77,89.7,89.71,3096
280,89.77,89.79,89.7499,89.79,2308
281,89.79,89.8,89.76,89.76,2044
282,89.795,89.8,89.75,89.8,3787
283,89.795,89.8,89.76,89.78,4147
284,89.79,89.81,89.775,89.8,5200
285,89.77,89.8364,89.76,89.81,9155
286,89.77,89.77,89.73,89.76,4193
287,89.75,89.76,89.75,89.76,800
288,89.77,89.8,89.745,89.75,2173
289,89.825,89.85,89.77,89.79,4200
290,89.86,89.86,89.82,89.85,4600
291,89.85,89.87,89.82,89.84,2701
292,89.85,89.93,89.835,89.86,9598
293,89.795,89.84,89.79,89.84,13700
294,89.81,89.84,89.795,89.809,7425
295,89.76,89.78,89.76,89.78,2446
296,89.73,89.76,89.73,89.76,1700
297,89.69,89.73,89.69,89.71,3500
298,89.79,89.805,89.7,89.71,4400
299,89.62,89.81,89.61,89.79,10587
300,89.6,89.63,89.6,89.62,3814
301,89.6,89.67,89.59,89.63,2992
302,89.68,89.72,89.61,89.61,8479
303,89.7,89.75,89.69,89.7,9330
304,89.7,89.73,89.69,89.71,9278
305,89.67,89.7,89.655,89.695,8505
306,89.66,89.73,89.64,89.66,8333
307,89.59,89.67,89.58,89.66,3390
308,89.5222,89.6,89.5,89.6,3351
309,89.52,89.55,89.52,89.5207,3266
310,89.43,89.51,89.43,89.51,5655
311,89.5,89.5,89.42,89.42,2459
312,89.51,89.52,89.49,89.52,2501
313,89.51,89.53,89.495,89.495,2573
314,89.4937,89.54,89.48,89.54,1399
315,89.51,89.56,89.51,89.53,3820
316,89.61,89.61,89.51,89.52,3895
317,89.55,89.61,89.53,89.61,4804
318,89.54,89.54,89.52,89.52,1200
319,89.62,89.62,89.545,89.55,2500
320,89.63,89.66,89.6,89.62,2922
321,89.59,89.66,89.59,89.6599,2290
322,89.58,89.6,89.565,89.565,2450
323,89.5,89.5601,89.5,89.56,4306
324,89.54,89.54,89.51,89.51,1336
325,89.53,89.56,89.52,89.54,4800
326,89.51,89.55,89.495,89.55,4412
327,89.49,89.51,89.4732,89.51,2500
328,89.47,89.472,89.46,89.47,3666
329,89.42,89.4636,89.41,89.46,3889
330,89.47,89.47,89.43,89.43,4100
331,89.565,89.565,89.43,89.44,3499
332,89.49,89.57,89.48,89.56,7009
333,89.44,89.5,89.42,89.5,7614
334,89.415,89.46,89.41,89.45,5750
335,89.39,89.42,89.38,89.41,5762
336,89.33,89.38,89.31,89.38,3618
337,89.32,89.33,89.31,89.33,1500
338,89.34,89.34,89.3001,89.32,6062
339,89.29,89.35,89.28,89.3332,9101
340,89.34,89.3512,89.3,89.32,2872
341,89.26,89.35,89.25,89.35,4362
342,89.25,89.29,89.25,89.26,2995
343,89.19,89.25,89.18,89.24,7442
344,89.22,89.23,89.19,89.2,2427
345,89.16,89.22,89.16,89.1801,4745
346,89.12,89.14,89.05,89.14,5006
347,89.16,89.19,89.13,89.13,9314
348,89.1,89.17,89.08,89.14,5010
349,89.08,89.12,89.07,89.1,8007
350,89.1375,89.17,89.075,89.0824,5286
351,89.06,89.12,89.01,89.12,7726
352,89.04,89.08,89.03,89.06,4859
353,89,89.05,89,89.05,4501
354,89.06,89.0955,89.03,89.03,4073
355,89.03,89.06,89,89.05,6751
356,89,89.05,89,89.03,5635
357,88.97,89.02,88.96,89.02,3700
358,88.91,88.96,88.9,88.96,4332
359,88.99,89.02,88.92,88.92,6662
360,88.99,89,88.92,88.97,4061
361,88.96,89.02,88.96,88.99,7500
362,88.96,89.01,88.93,88.98,8747
363,88.95,88.95,88.89,88.94,7900
364,88.96,89.04,88.945,88.95,10508
365,88.98,88.99,88.96,88.96,7623
366,89.05,89.0799,88.98,88.99,10279
367,88.99,89.07,88.96,89.03,12409
368,89.01,89.01,88.95,88.9912,9642
369,88.96,89.03,88.95,89.01,5633
370,88.97,89,88.95,88.98,10782
371,89.01,89.06,88.97,88.97,14866
372,89.11,89.11,89.01,89.01,10421
373,89.09,89.19,89.07,89.09,14177
374,89.06,89.16,89.06,89.11,8801
375,89.12,89.12,89.05,89.06,15460
376,89.04,89.11,89.01,89.11,28742
377,89.045,89.06,89.01,89.04,16516
378,89.05,89.07,89.03,89.045,15126
379,89.01,89.07,89.01,89.05,17771
380,88.93,89.02,88.92,89,19146
381,89.04,89.04,88.93,88.93,16972
382,89,89.06,89,89.04,19568
383,89.04,89.04,88.98,89,22038
384,89.03,89.06,89.03,89.04,18135
385,89.08,89.09,89.01,89.03,18518
386,89.2,89.2,89.07,89.07,35277
387,89.205,89.24,89.16,89.2,36617
388,89.19,89.22,89.18,89.21,33772
389,89.2,89.23,89.18,89.19,36722
390,89.16,89.22,89.1,89.205,122195
