PPG,PPG Industries,Materials,8,Specialty Chemicals,25989091815,1430030
a1502371800,102.8,102.85,102.8,102.8,9850
1,103.08,103.08,102.82,102.87,1000
2,102.99,103.115,102.99,103.075,3000
3,102.81,103.06,102.81,103,8173
4,102.7,102.8,102.69,102.8,1931
5,102.72,102.73,102.69,102.73,700
6,102.8,102.84,102.785,102.81,1119
7,102.76,102.8048,102.75,102.76,500
8,102.76,102.79,102.72,102.72,1108
9,102.7775,102.78,102.72,102.75,2700
10,102.73,102.74,102.72,102.74,900
11,102.35,102.72,102.35,102.72,6366
12,102.42,102.42,102.42,102.42,100
13,102.49,102.5,102.41,102.42,1700
14,102.485,102.53,102.46,102.48,900
15,102.64,102.64,102.51,102.51,2100
16,102.64,102.685,102.57,102.58,1484
17,102.64,102.7,102.625,102.65,2800
19,102.665,102.665,102.6,102.61,1600
20,102.48,102.65,102.48,102.62,14724
21,102.57,102.6,102.45,102.46,8050
22,102.57,102.61,102.56,102.5946,2200
23,102.62,102.62,102.57,102.57,1000
24,102.54,102.66,102.54,102.66,2143
25,102.57,102.59,102.53,102.53,900
26,102.51,102.53,102.51,102.53,300
27,102.52,102.53,102.52,102.53,400
28,102.52,102.54,102.48,102.54,20300
29,102.3203,102.48,102.3203,102.48,1600
30,102.1903,102.32,102.1903,102.32,1550
31,102.25,102.29,102.17,102.17,7293
32,102.24,102.31,102.24,102.26,1700
33,102.3,102.3,102.2701,102.28,1400
34,102.245,102.3,102.23,102.3,1300
35,102.1,102.25,102.1,102.23,3320
36,102.16,102.175,102.1,102.13,980
37,102.06,102.16,102,102.12,4066
38,101.9,102.06,101.9,102.06,1125
39,101.76,101.96,101.76,101.91,16311
40,101.84,101.85,101.75,101.82,8262
41,101.8,101.85,101.8,101.845,1301
42,101.8425,101.85,101.78,101.81,2700
43,101.9,101.91,101.86,101.86,2400
44,102.01,102.01,101.92,101.92,1500
45,101.96,101.995,101.96,101.995,600
46,102,102.065,101.99,101.99,2538
47,101.9,101.97,101.9,101.97,1576
48,101.885,101.905,101.82,101.905,3096
49,101.88,101.92,101.86,101.89,2100
50,101.9,101.9,101.9,101.9,100
51,101.84,101.93,101.84,101.91,1800
52,101.875,101.9,101.87,101.87,1200
53,101.9,101.91,101.875,101.875,2580
54,101.93,101.97,101.91,101.91,2700
55,101.96,102,101.93,101.93,2900
56,101.935,101.96,101.92,101.9375,1000
57,101.9,101.96,101.89,101.935,7000
58,101.97,101.97,101.8987,101.92,6750
59,102.04,102.04,101.95,101.95,2499
60,102.065,102.07,102.065,102.07,300
61,102.05,102.12,102.05,102.08,3507
62,101.895,102.05,101.895,102.05,14675
63,101.935,101.935,101.8752,101.8752,1915
64,101.93,101.93,101.91,101.91,3100
65,101.935,101.97,101.925,101.9396,2704
66,102.01,102.01,101.93,101.94,4700
67,102,102.01,101.97,102.01,4200
68,102,102.07,101.995,102.01,2600
69,101.9645,102.01,101.9645,102,3201
70,102.02,102.02,101.97,101.99,3200
71,102.07,102.07,102.04,102.05,800
72,102.04,102.0661,102.04,102.05,2500
73,102,102.04,102,102.04,1880
74,102,102,102,102,900
75,101.985,102.01,101.98,102.005,7869
76,102,102,101.96,101.985,3600
77,102,102.08,101.98,102,9600
78,101.99,102.02,101.99,102,8100
79,101.99,101.99,101.965,101.98,3200
80,101.98,102.0128,101.96,101.99,16947
81,101.99,101.99,101.95,101.985,2085
82,101.99,102,101.96,101.975,6300
83,102,102.01,101.98,102,2609
84,101.99,102.01,101.96,102.01,5516
85,101.98,101.98,101.97,101.97,1300
86,101.985,101.99,101.98,101.99,1700
87,101.96,101.98,101.95,101.97,10408
88,101.98,102,101.96,101.96,23039
89,101.97,102,101.965,101.98,1600
90,101.965,101.985,101.96,101.97,7500
91,101.975,102.01,101.96,102,5400
92,101.99,102.02,101.975,101.975,2100
93,101.99,102.01,101.99,102.01,4116
94,102,102.01,102,102.01,600
95,102.025,102.04,101.98,102.01,3200
96,102.07,102.07,102.04,102.04,200
97,102.09,102.12,102.06,102.06,2000
99,102.03,102.09,102.01,102.09,3674
100,102,102.03,101.97,102.03,2102
101,102.02,102.02,101.98,101.98,1600
102,102.01,102.03,102.01,102.03,200
104,102,102.03,102,102.03,400
105,102.04,102.05,102.02,102.02,2818
106,102.03,102.04,102,102.04,2632
107,101.98,102.01,101.98,102,1848
108,101.985,102,101.97,101.98,4410
109,101.99,101.99,101.97,101.99,900
110,102.01,102.01,101.9995,101.9995,1860
111,101.99,102.05,101.99,102.01,1959
112,102.02,102.02,102,102,700
113,101.975,102.006,101.97,102.006,3505
114,101.995,102,101.974,101.974,3240
115,101.96,102.01,101.95,102,3900
116,101.99,102,101.95,101.96,5710
117,102.06,102.06,102,102,1300
118,102.01,102.07,102,102.07,800
119,101.99,102.02,101.99,102.02,300
120,102,102.01,101.96,101.99,2353
121,102.03,102.03,102,102.01,527
122,102.04,102.04,102.03,102.03,1100
123,102.09,102.09,102.05,102.05,12500
124,102.14,102.15,102.125,102.14,800
125,102.12,102.12,102.12,102.12,100
126,102.12,102.12,102.09,102.09,500
127,102.08,102.14,102.08,102.11,2721
128,102.11,102.11,102.075,102.075,3022
129,102.09,102.1,102.08,102.1,600
130,102.04,102.07,102.04,102.07,2017
131,102.03,102.03,102.03,102.03,100
132,102,102.03,102,102.03,702
133,101.99,102.04,101.99,102.03,2500
134,102.02,102.02,101.99,101.99,500
135,102,102.02,101.99,102.0023,1927
136,102.02,102.02,101.981,101.99,1500
137,102.03,102.03,102,102,1900
139,101.975,102.01,101.975,102.01,3000
140,101.985,102,101.975,101.975,1300
141,101.985,102.01,101.97,102,54530
142,102,102,101.985,101.985,3506
143,101.98,102,101.97,101.97,9551
144,101.99,102.01,101.96,101.98,13099
145,101.99,102.01,101.96,102.01,10150
146,101.99,101.99,101.97,101.98,1300
147,101.99,102,101.97,101.99,3623
148,101.99,102,101.98,101.99,1400
149,101.99,102.01,101.98,101.99,4041
150,101.99,101.99,101.97,101.98,3146
151,101.98,102,101.96,102,5599
152,101.93,101.99,101.85,101.97,16600
153,101.925,102,101.9,101.9,12400
154,101.97,101.97,101.9,101.94,9744
155,101.96,102,101.93,101.97,11787
156,101.98,102.04,101.93,101.95,15386
157,101.99,101.99,101.94,101.96,1050
158,101.99,102.01,101.99,102.01,400
159,101.98,101.99,101.96,101.97,2094
160,101.997,102.01,101.9832,101.9832,1254
162,102,102.045,101.97,101.99,5141
163,101.99,101.99,101.99,101.99,100
164,102,102.002,102,102,1277
165,101.985,101.99,101.985,101.99,500
166,101.98,101.985,101.97,101.97,3800
167,102.01,102.01,101.98,101.98,2299
168,102.0208,102.04,102.0208,102.03,327
169,101.97,102.03,101.96,102.01,1988
170,101.985,102,101.93,101.96,13438
171,101.97,101.98,101.94,101.98,9144
172,101.81,101.98,101.75,101.96,89918
173,101.8,101.82,101.78,101.805,1430
174,101.79,101.79,101.75,101.79,1300
175,101.76,101.82,101.76,101.76,2533
176,101.755,101.775,101.72,101.775,1003
177,101.765,101.78,101.765,101.78,800
178,101.81,101.81,101.765,101.765,3300
179,101.835,101.835,101.81,101.81,2600
180,101.8,101.84,101.78,101.84,4300
181,101.73,101.82,101.73,101.82,1600
182,101.65,101.73,101.65,101.72,2200
183,101.65,101.68,101.65,101.65,2900
184,101.65,101.67,101.65,101.66,1000
185,101.62,101.66,101.61,101.645,4900
186,101.66,101.69,101.635,101.635,5216
187,101.64,101.68,101.62,101.655,9500
188,101.67,101.71,101.62,101.63,7125
189,101.62,101.69,101.62,101.69,1500
190,101.6,101.62,101.58,101.6,2100
191,101.635,101.66,101.6,101.605,4352
192,101.635,101.66,101.635,101.66,400
193,101.7,101.7,101.62,101.63,6837
194,101.68,101.7,101.68,101.7,800
195,101.675,101.7,101.66,101.67,7404
196,101.67,101.69,101.65,101.69,3180
197,101.68,101.69,101.66,101.675,4700
198,101.69,101.7,101.66,101.68,4717
199,101.6863,101.73,101.68,101.68,2023
200,101.7086,101.72,101.695,101.695,1251
201,101.67,101.705,101.67,101.705,1400
202,101.66,101.69,101.66,101.69,1300
203,101.71,101.71,101.682,101.69,4200
204,101.7,101.72,101.69,101.72,1300
205,101.74,101.77,101.696,101.705,6933
206,101.77,101.78,101.77,101.78,200
207,101.72,101.76,101.72,101.745,1311
208,101.71,101.75,101.71,101.735,1000
209,101.68,101.74,101.68,101.715,3330
210,101.65,101.7,101.65,101.69,4140
211,101.71,101.74,101.68,101.68,3025
212,101.715,101.74,101.7,101.72,2240
213,101.73,101.73,101.71,101.715,700
214,101.7,101.74,101.7,101.7229,5007
215,101.73,101.73,101.69,101.72,2200
216,101.73,101.73,101.71,101.73,1400
217,101.7,101.73,101.67,101.73,4238
218,101.715,101.715,101.7,101.7,200
219,101.68,101.715,101.67,101.715,1221
220,101.66,101.67,101.66,101.67,767
221,101.69,101.69,101.68,101.6899,1835
222,101.66,101.69,101.66,101.68,1000
223,101.67,101.68,101.66,101.66,604
224,101.65,101.67,101.65,101.67,400
225,101.64,101.67,101.64,101.66,1100
226,101.59,101.64,101.59,101.64,1200
227,101.605,101.6058,101.59,101.6058,513
228,101.55,101.59,101.55,101.59,400
229,101.5708,101.59,101.57,101.57,2600
230,101.58,101.58,101.56,101.57,1500
231,101.57,101.59,101.57,101.57,400
232,101.64,101.66,101.6,101.6,2300
233,101.67,101.67,101.65,101.66,2108
234,101.7,101.7,101.7,101.7,234
235,101.72,101.72,101.705,101.72,610
236,101.72,101.72,101.719,101.72,1574
237,101.72,101.73,101.72,101.72,2823
238,101.72,101.7299,101.72,101.725,1041
239,101.78,101.83,101.73,101.73,4718
240,101.85,101.85,101.7899,101.7899,1502
241,101.78,101.84,101.78,101.84,468
242,101.81,101.81,101.78,101.782,410
243,101.77,101.78,101.77,101.78,400
244,101.755,101.755,101.755,101.755,100
245,101.741,101.77,101.741,101.77,500
246,101.73,101.74,101.73,101.74,700
247,101.72,101.72,101.72,101.72,400
248,101.72,101.72,101.71,101.71,300
249,101.73,101.74,101.72,101.74,1600
250,101.65,101.74,101.65,101.74,3780
251,101.62,101.67,101.62,101.67,1624
252,101.64,101.655,101.64,101.655,600
253,101.68,101.68,101.66,101.66,5431
254,101.66,101.69,101.66,101.69,300
255,101.65,101.69,101.64,101.69,1818
256,101.67,101.67,101.67,101.67,200
257,101.63,101.66,101.63,101.64,700
258,101.67,101.67,101.66,101.66,300
259,101.67,101.67,101.625,101.625,430
260,101.6,101.63,101.58,101.62,3554
261,101.62,101.63,101.59,101.605,6193
262,101.64,101.64,101.64,101.64,200
263,101.65,101.65,101.62,101.63,3039
264,101.73,101.73,101.63,101.63,4020
265,101.8,101.8,101.77,101.77,1000
266,101.75,101.805,101.75,101.79,1100
267,101.78,101.78,101.78,101.78,300
268,101.74,101.8,101.74,101.78,2900
269,101.74,101.75,101.74,101.75,337
270,101.765,101.78,101.76,101.76,1105
271,101.7501,101.78,101.75,101.78,500
272,101.78,101.78,101.751,101.751,500
273,101.71,101.765,101.71,101.765,2813
274,101.62,101.68,101.62,101.68,9800
275,101.635,101.65,101.605,101.615,3169
276,101.61,101.65,101.61,101.65,300
277,101.585,101.64,101.56,101.63,1800
278,101.61,101.61,101.61,101.61,100
279,101.595,101.61,101.5914,101.61,1700
280,101.61,101.61,101.58,101.61,400
281,101.61,101.61,101.59,101.59,1900
282,101.6316,101.6316,101.605,101.605,1800
283,101.71,101.71,101.65,101.65,1781
284,101.71,101.71,101.69,101.71,600
285,101.71,101.75,101.69,101.69,1000
286,101.7101,101.75,101.71,101.75,400
287,101.72,101.725,101.69,101.71,2077
288,101.7,101.75,101.7,101.73,2091
289,101.79,101.8,101.74,101.74,1631
290,101.8,101.8,101.76,101.78,2400
291,101.8,101.8,101.79,101.79,3800
292,101.8,101.8,101.79,101.8,7600
293,101.83,101.86,101.81,101.82,3446
294,101.85,101.85,101.83,101.84,1100
295,101.87,101.885,101.85,101.86,7900
296,101.85,101.87,101.85,101.87,2625
297,101.8526,101.87,101.85,101.87,1250
298,101.85,101.86,101.84,101.86,50206
299,101.805,101.845,101.8,101.82,25800
300,101.88,101.9,101.805,101.805,4200
301,101.95,101.98,101.875,101.875,4889
302,102.02,102.02,101.949,101.95,13239
303,102.045,102.09,102.02,102.03,4494
304,102.04,102.0775,102.02,102.02,4211
305,102.04,102.05,102.03,102.05,1300
306,102.015,102.03,102.015,102.03,600
307,101.92,102.01,101.92,102.01,1700
308,101.8,101.9,101.8,101.9,800
309,101.9176,101.9176,101.84,101.85,2931
310,101.89,101.89,101.84,101.89,1362
311,101.83,101.84,101.83,101.84,400
312,101.84,101.96,101.84,101.86,3964
313,101.85,101.89,101.85,101.85,500
314,101.9,101.95,101.875,101.875,6219
315,101.8901,101.91,101.89,101.9088,670
316,101.93,101.93,101.89,101.9068,3000
317,101.89,101.94,101.89,101.94,2900
318,101.92,101.92,101.87,101.88,2203
319,101.87,101.8852,101.86,101.87,3252
320,101.963,101.99,101.87,101.91,3300
321,101.915,101.9238,101.9,101.9238,1040
322,101.93,101.93,101.91,101.92,4046
323,101.96,101.99,101.92,101.925,2001
324,101.92,101.97,101.92,101.97,1100
325,101.955,101.96,101.955,101.96,3591
326,101.975,101.975,101.93,101.94,4892
327,101.914,102,101.91,101.98,3212
328,102.03,102.03,101.94,101.95,2760
329,101.9319,101.97,101.92,101.97,1971
330,101.95,101.96,101.92,101.92,2299
331,102,102,101.94,101.94,4776
332,101.96,102,101.96,102,3498
333,101.81,101.95,101.81,101.95,3145
334,101.85,101.86,101.81,101.81,2524
335,101.85,101.86,101.84,101.845,2200
336,101.825,101.86,101.8005,101.86,2484
337,101.81,101.82,101.76,101.815,4178
338,101.7995,101.7995,101.79,101.79,653
339,101.8199,101.82,101.78,101.79,2981
340,101.79,101.83,101.79,101.83,1609
341,101.81,101.81,101.76,101.78,2700
342,101.77,101.8,101.77,101.79,959
343,101.75,101.81,101.73,101.8,5799
344,101.74,101.77,101.74,101.77,300
345,101.76,101.77,101.73,101.73,4400
346,101.69,101.75,101.67,101.75,3100
347,101.7,101.7,101.675,101.675,5000
348,101.63,101.67,101.61,101.67,1693
349,101.64,101.65,101.615,101.615,3035
350,101.68,101.68,101.62,101.6366,2345
351,101.665,101.69,101.66,101.675,2950
352,101.65,101.68,101.64,101.68,1500
353,101.68,101.69,101.64,101.65,2400
354,101.69,101.7,101.68,101.68,9059
355,101.65,101.69,101.64,101.68,1008
356,101.61,101.64,101.6,101.6001,3539
357,101.53,101.6,101.53,101.6,4779
358,101.53,101.56,101.53,101.56,700
359,101.52,101.56,101.52,101.545,5700
360,101.54,101.55,101.5,101.52,8563
361,101.56,101.6,101.52,101.55,4952
362,101.535,101.58,101.535,101.57,4717
363,101.505,101.52,101.49,101.52,10276
364,101.48,101.53,101.48,101.49,8600
365,101.48,101.49,101.46,101.47,4817
366,101.4799,101.52,101.4799,101.48,5898
367,101.44,101.48,101.43,101.47,5846
368,101.44,101.45,101.42,101.4296,8000
369,101.41,101.43,101.39,101.42,4099
370,101.435,101.45,101.41,101.42,5263
371,101.42,101.455,101.41,101.43,24712
372,101.44,101.4468,101.42,101.42,3567
373,101.52,101.52,101.44,101.45,18908
374,101.4475,101.505,101.43,101.505,8037
375,101.37,101.45,101.34,101.45,10375
376,101.36,101.38,101.35,101.37,14265
377,101.3125,101.37,101.29,101.365,23288
378,101.35,101.35,101.31,101.33,10478
379,101.35,101.38,101.3232,101.3232,2398
380,101.28,101.36,101.24,101.36,13819
381,101.29,101.31,101.24,101.3,24277
382,101.25,101.31,101.25,101.29,12850
383,101.25,101.29,101.24,101.26,11357
384,101.26,101.3,101.22,101.26,12831
385,101.33,101.36,101.25,101.25,9832
386,101.34,101.34,101.32,101.325,14208
387,101.35,101.36,101.32,101.335,22242
388,101.34,101.36,101.32,101.35,10977
389,101.34,101.4,101.335,101.335,14632
390,101.25,101.41,101.25,101.35,31037
