EOG,EOG Resources,Energy,,Oil & Gas Exploration & Production,,
a1494595800,94.03,94.12,94.03,94.12,19753
1,94.185,94.32,94.03,94.03,600
2,94.05,94.28,94.05,94.27,6700
3,94.06,94.25,94.06,94.11,3500
4,94.09,94.09,94,94.05,1600
5,93.96,94.0728,93.8,94.0728,2400
6,94.14,94.15,94.04,94.04,1300
7,94.13,94.22,94.04,94.07,800
8,94.25,94.34,94.05,94.16,4279
9,94.41,94.44,94.31,94.32,20690
10,94.45,94.47,94.4,94.46,4062
11,94.49,94.49,94.46,94.46,300
12,94.57,94.62,94.47,94.49,2900
13,94.61,94.61,94.56,94.58,1600
14,94.65,94.7,94.53,94.55,3500
15,94.615,94.66,94.57,94.65,7200
16,94.51,94.63,94.4,94.57,7600
17,94.63,94.63,94.46,94.51,5400
18,94.62,94.68,94.61,94.66,2803
19,94.59,94.68,94.59,94.63,4824
20,94.44,94.57,94.44,94.57,4770
21,94.43,94.5,94.42,94.43,6447
22,94.38,94.445,94.35,94.43,3700
23,94.44,94.46,94.36,94.36,7532
24,94.43,94.48,94.38,94.44,6088
25,94.4,94.46,94.26,94.43,34100
26,94.245,94.39,94.22,94.385,8125
27,94.33,94.33,94.19,94.2,4600
28,94.34,94.36,94.31,94.33,6250
29,94.41,94.41,94.3,94.31,5725
30,94.58,94.58,94.415,94.415,15126
31,94.53,94.56,94.49,94.55,9029
32,94.55,94.61,94.52,94.55,10028
33,94.455,94.57,94.455,94.55,23801
34,94.28,94.455,94.28,94.455,18835
35,94.31,94.34,94.28,94.29,5468
36,94.13,94.31,94.11,94.31,19267
37,94.14,94.16,94.1,94.14,1400
38,94.02,94.12,94.02,94.12,1950
39,94.08,94.11,94.04,94.04,27052
40,94.25,94.25,94.0701,94.1,1800
41,94.24,94.2668,94.22,94.24,3315
42,94.21,94.32,94.21,94.2215,3600
43,94.26,94.27,94.19,94.19,3055
44,94.28,94.29,94.26,94.29,2900
45,94.16,94.28,94.09,94.27,6450
46,94.175,94.18,94.13,94.14,1751
47,94.09,94.18,94.08,94.17,2835
48,94.09,94.09,94.04,94.07,3665
49,93.98,94.06,93.98,94.05,9201
50,93.99,93.99,93.95,93.99,1835
51,93.965,94.08,93.94,93.98,8994
52,94.07,94.07,93.95,93.95,2200
53,93.98,94.045,93.91,94.02,3800
54,93.99,93.99,93.91,93.9311,3900
55,94.05,94.05,93.9,93.97,14100
56,93.97,94.025,93.905,94.025,7757
57,93.93,93.935,93.885,93.935,3301
58,93.824,93.915,93.824,93.915,3100
59,93.87,93.87,93.82,93.825,3410
60,93.85,93.88,93.81,93.8444,3200
61,93.835,93.85,93.81,93.83,3194
62,93.93,93.93,93.835,93.85,7046
63,94.115,94.13,93.92,93.92,15150
64,94.13,94.16,94.11,94.12,4498
65,94.2,94.24,94.14,94.14,3500
66,94.14,94.23,94.11,94.22,2900
67,94.12,94.135,94.11,94.11,11300
68,94.22,94.22,94.11,94.135,5735
69,94.17,94.21,94.15,94.21,3100
70,94.21,94.23,94.11,94.17,4561
71,94.19,94.255,94.165,94.225,6493
72,94.21,94.24,94.16,94.16,7783
73,94.13,94.17,94.11,94.17,3500
74,94.09,94.09,94.05,94.09,1800
75,94.13,94.14,94.08,94.08,3685
76,94.09,94.14,94.09,94.14,2000
77,94.05,94.09,94.05,94.09,1152
78,93.97,94.06,93.97,94.06,4900
79,94.07,94.07,93.98,93.98,4100
80,94.08,94.1099,94.08,94.1099,620
81,94.12,94.1262,94.07,94.11,3870
82,94.09,94.1,94.04,94.1,2400
83,94.09,94.105,94.03,94.08,3210
84,94.2,94.2,94.1,94.1,2212
85,94.22,94.22,94.17,94.18,4081
86,94.2766,94.29,94.23,94.23,5500
87,94.3,94.35,94.29,94.29,7600
88,94.3,94.33,94.27,94.319,15600
89,94.2,94.31,94.2,94.3056,5301
90,94.1,94.23,94.1,94.23,9643
91,94.2,94.21,94.09,94.09,6275
92,94.21,94.21,94.185,94.185,1100
93,94.18,94.205,94.15,94.19,4507
94,94.23,94.26,94.19,94.19,3810
95,94.19,94.24,94.19,94.21,1200
96,94.2,94.22,94.175,94.19,3700
97,94.3,94.34,94.21,94.21,4200
98,94.37,94.38,94.32,94.32,3250
99,94.49,94.49,94.35,94.36,14450
100,94.435,94.465,94.42,94.44,2800
101,94.41,94.45,94.4,94.43,6127
102,94.36,94.39,94.35,94.38,3223
103,94.32,94.35,94.31,94.35,3408
104,94.29,94.3159,94.29,94.3,1733
105,94.2999,94.32,94.24,94.29,11050
106,94.295,94.315,94.26,94.28,6020
107,94.28,94.28,94.25,94.25,2100
108,94.34,94.34,94.26,94.26,2837
109,94.31,94.34,94.305,94.33,4413
110,94.31,94.31,94.3,94.31,4100
111,94.38,94.39,94.315,94.315,7435
112,94.375,94.3898,94.36,94.3898,2600
113,94.46,94.46,94.39,94.39,2990
114,94.49,94.49,94.45,94.45,8600
115,94.49,94.49,94.43,94.47,3835
116,94.4,94.485,94.4,94.47,2400
117,94.4,94.405,94.35,94.405,8765
118,94.42,94.44,94.3801,94.395,6800
119,94.47,94.47,94.35,94.3975,7400
120,94.465,94.49,94.46,94.49,2050
121,94.55,94.58,94.48,94.48,4265
122,94.63,94.63,94.49,94.55,7753
123,94.66,94.7,94.6189,94.6189,7961
124,94.61,94.65,94.595,94.65,4400
125,94.63,94.63,94.59,94.605,2840
126,94.685,94.69,94.64,94.64,3063
127,94.63,94.68,94.63,94.67,2300
128,94.7,94.71,94.63,94.64,10426
129,94.7275,94.77,94.6999,94.7,13350
130,94.6775,94.735,94.6775,94.735,3000
131,94.65,94.71,94.64,94.67,7269
132,94.67,94.69,94.64,94.64,8023
133,94.73,94.74,94.67,94.675,8300
134,94.74,94.77,94.73,94.73,4238
135,94.6901,94.745,94.6775,94.74,5067
136,94.665,94.7,94.665,94.69,2100
137,94.66,94.67,94.65,94.665,13604
138,94.73,94.755,94.67,94.67,13800
139,94.76,94.7725,94.71,94.71,6450
140,94.7,94.78,94.7,94.77,5100
141,94.74,94.76,94.71,94.71,3676
142,94.74,94.76,94.72,94.73,4031
143,94.7375,94.75,94.72,94.74,5700
144,94.79,94.79,94.73,94.73,10395
145,94.72,94.78,94.71,94.76,10799
146,94.73,94.74,94.7125,94.715,4401
147,94.73,94.73,94.72,94.725,3200
148,94.76,94.765,94.72,94.725,7950
149,94.74,94.78,94.74,94.77,12797
150,94.755,94.76,94.72,94.76,10298
151,94.75,94.762,94.74,94.755,3990
152,94.83,94.83,94.74,94.745,7438
153,94.83,94.88,94.83,94.84,3402
154,94.81,94.83,94.78,94.83,11078
155,94.82,94.82,94.78,94.795,7845
156,94.81,94.825,94.8,94.82,3354
157,94.8,94.82,94.8,94.8,18119
158,94.79,94.82,94.715,94.8,24698
159,94.7275,94.78,94.72,94.76,8840
160,94.79,94.83,94.71,94.71,21812
161,94.81,94.83,94.7501,94.77,7600
162,94.84,94.86,94.8,94.82,10792
163,94.8,94.85,94.8,94.85,1300
164,94.825,94.835,94.8,94.8,3744
165,94.805,94.825,94.79,94.825,2576
166,94.8201,94.83,94.8,94.8,10836
167,94.86,94.86,94.83,94.83,5100
168,94.86,94.87,94.85,94.86,5815
169,94.84,94.85,94.82,94.85,4389
170,94.8501,94.89,94.84,94.84,8120
171,94.86,94.9,94.85,94.86,3598
172,94.86,94.86,94.81,94.86,9141
173,94.9,94.91,94.85,94.86,9200
174,94.91,94.92,94.88,94.9,6100
175,95,95,94.91,94.91,12004
176,94.985,95.01,94.94,94.98,22111
177,94.925,94.985,94.92,94.985,7782
178,94.835,94.925,94.835,94.925,26732
179,94.81,94.89,94.81,94.84,16504
180,94.84,94.85,94.79,94.8,4650
181,94.77,94.84,94.77,94.84,5903
182,94.78,94.79,94.7525,94.7525,8185
183,94.75,94.77,94.71,94.77,3700
184,94.75,94.75,94.73,94.75,3718
185,94.7,94.76,94.69,94.76,5662
186,94.7,94.75,94.69,94.71,16903
187,94.71,94.74,94.685,94.685,6400
188,94.72,94.76,94.67,94.71,12399
189,94.695,94.76,94.69,94.7,8336
190,94.64,94.69,94.64,94.69,25604
191,94.65,94.68,94.63,94.65,7701
192,94.5798,94.65,94.55,94.65,10424
193,94.56,94.58,94.54,94.57,3151
194,94.55,94.61,94.55,94.58,9800
195,94.54,94.57,94.54,94.55,2632
196,94.52,94.555,94.51,94.555,5131
197,94.57,94.61,94.5,94.52,11761
198,94.58,94.6,94.57,94.59,1225
199,94.57,94.57,94.54,94.57,3739
200,94.57,94.59,94.55,94.57,5417
201,94.6,94.6,94.56,94.57,4089
202,94.61,94.64,94.6,94.6,7206
203,94.57,94.59,94.55,94.59,3423
204,94.59,94.61,94.57,94.585,2000
205,94.56,94.58,94.54,94.57,6767
206,94.5,94.54,94.49,94.54,8410
207,94.51,94.51,94.47,94.5,5300
208,94.455,94.5,94.435,94.5,4300
209,94.41,94.44,94.4,94.44,600
210,94.44,94.45,94.4,94.4,2300
211,94.57,94.57,94.43,94.43,2464
212,94.59,94.59,94.54,94.54,700
213,94.555,94.57,94.54,94.54,1000
214,94.56,94.56,94.52,94.555,7740
215,94.53,94.5768,94.53,94.56,5100
216,94.51,94.53,94.48,94.53,4300
217,94.5,94.55,94.5,94.52,4100
218,94.56,94.56,94.47,94.47,5600
219,94.57,94.61,94.53,94.56,14730
220,94.54,94.59,94.54,94.59,1350
221,94.56,94.57,94.53,94.54,4566
222,94.555,94.56,94.54,94.56,800
223,94.6,94.6,94.53,94.55,8217
224,94.57,94.59,94.565,94.59,3300
225,94.56,94.6,94.54,94.57,12102
226,94.6,94.6,94.54,94.54,6700
227,94.63,94.66,94.57,94.58,24796
228,94.55,94.66,94.55,94.625,21298
229,94.6,94.6,94.56,94.56,21556
230,94.43,94.6,94.43,94.595,8650
231,94.46,94.5,94.4575,94.46,2958
232,94.56,94.56,94.45,94.47,5000
233,94.5,94.57,94.5,94.54,3049
234,94.42,94.51,94.41,94.49,8408
235,94.37,94.43,94.37,94.41,4910
236,94.35,94.3792,94.35,94.37,2842
237,94.45,94.45,94.37,94.37,5864
238,94.52,94.52,94.41,94.45,4500
239,94.53,94.55,94.51,94.52,4100
240,94.53,94.55,94.51,94.53,3318
241,94.51,94.53,94.51,94.52,1600
242,94.5,94.52,94.5,94.51,1200
243,94.53,94.53,94.49,94.51,4500
244,94.525,94.55,94.51,94.55,3000
245,94.52,94.55,94.52,94.52,3400
246,94.54,94.54,94.5,94.53,4370
247,94.54,94.54,94.54,94.54,200
249,94.48,94.535,94.48,94.52,3043
250,94.53,94.59,94.49,94.49,9938
251,94.55,94.55,94.5377,94.54,1051
252,94.545,94.55,94.52,94.52,1644
253,94.57,94.58,94.5475,94.56,1000
254,94.555,94.57,94.53,94.57,3874
255,94.56,94.56,94.54,94.555,4500
256,94.58,94.61,94.57,94.58,3700
257,94.58,94.58,94.53,94.56,3901
258,94.62,94.62,94.58,94.59,3584
259,94.58,94.62,94.58,94.62,5453
260,94.6,94.6,94.58,94.58,500
261,94.58,94.6,94.58,94.58,3600
262,94.53,94.58,94.53,94.58,3900
263,94.53,94.54,94.52,94.53,1900
264,94.52,94.54,94.5,94.51,7701
265,94.6,94.6,94.52,94.531,4192
266,94.54,94.62,94.53,94.62,7753
267,94.54,94.59,94.53,94.55,14751
268,94.515,94.54,94.51,94.54,4000
269,94.53,94.5455,94.52,94.52,3403
270,94.55,94.55,94.52,94.52,1929
271,94.55,94.55,94.52,94.54,5101
272,94.53,94.6,94.53,94.56,6690
273,94.53,94.5425,94.52,94.53,2650
274,94.54,94.54,94.53,94.5356,1641
275,94.53,94.54,94.52,94.53,2600
276,94.55,94.59,94.53,94.54,3900
277,94.55,94.57,94.52,94.57,4983
278,94.6,94.6,94.54,94.55,4500
279,94.52,94.59,94.52,94.59,2800
280,94.58,94.58,94.54,94.55,3300
281,94.55,94.5886,94.54,94.5886,5367
282,94.58,94.59,94.53,94.55,15099
283,94.54,94.58,94.54,94.58,7000
284,94.57,94.59,94.51,94.54,11644
285,94.56,94.57,94.55,94.565,4943
286,94.55,94.57,94.55,94.57,700
287,94.57,94.57,94.555,94.555,2210
288,94.56,94.57,94.555,94.57,8050
289,94.59,94.59,94.55,94.56,4885
290,94.56,94.6,94.56,94.59,14589
291,94.53,94.58,94.51,94.57,3800
292,94.55,94.55,94.52,94.52,4400
293,94.58,94.59,94.5463,94.55,18898
294,94.525,94.58,94.52,94.575,6332
295,94.535,94.54,94.52,94.53,4496
296,94.548,94.55,94.53,94.53,3300
297,94.58,94.58,94.52,94.54,9021
298,94.57,94.58,94.55,94.58,4140
299,94.59,94.59,94.55,94.56,5621
300,94.57,94.58,94.56,94.58,2400
301,94.59,94.59,94.5601,94.58,3235
302,94.61,94.65,94.6,94.6,6300
303,94.62,94.63,94.6,94.61,5941
304,94.6,94.63,94.6,94.62,4001
305,94.64,94.65,94.6,94.6,5000
306,94.63,94.6557,94.6101,94.6557,2800
307,94.61,94.63,94.61,94.63,600
308,94.615,94.62,94.6,94.61,19200
309,94.6189,94.6189,94.6,94.61,1200
310,94.64,94.64,94.61,94.61,5220
311,94.65,94.66,94.64,94.64,2600
312,94.66,94.66,94.64,94.65,3889
313,94.66,94.67,94.66,94.66,6901
314,94.7,94.7,94.65,94.66,7125
315,94.765,94.77,94.7,94.71,6875
316,94.74,94.76,94.72,94.76,8300
317,94.72,94.76,94.72,94.75,4861
318,94.71,94.73,94.7,94.72,3700
319,94.71,94.73,94.7,94.72,9800
320,94.64,94.71,94.64,94.71,2600
321,94.65,94.65,94.63,94.64,2100
322,94.6,94.64,94.6,94.63,4565
323,94.6001,94.6275,94.6001,94.6001,4700
324,94.6,94.6001,94.5925,94.6,3300
325,94.565,94.5925,94.56,94.59,3222
326,94.535,94.59,94.53,94.565,15646
327,94.5599,94.5599,94.53,94.535,2125
328,94.55,94.57,94.55,94.56,2360
329,94.54,94.56,94.54,94.56,3683
330,94.5401,94.55,94.53,94.5301,3601
331,94.59,94.59,94.5401,94.5401,10600
332,94.58,94.61,94.58,94.59,19777
333,94.58,94.59,94.58,94.59,1000
334,94.555,94.5912,94.55,94.58,8600
335,94.5401,94.55,94.53,94.55,6483
336,94.57,94.57,94.54,94.55,5600
337,94.5301,94.57,94.53,94.57,6652
338,94.57,94.59,94.54,94.54,8758
339,94.565,94.59,94.535,94.58,17226
340,94.56,94.57,94.54,94.55,7300
341,94.545,94.5525,94.545,94.55,3100
342,94.54,94.56,94.53,94.55,9853
343,94.55,94.58,94.55,94.56,13682
344,94.55,94.555,94.54,94.555,6900
345,94.5525,94.56,94.545,94.55,12900
346,94.57,94.59,94.55,94.55,26055
347,94.59,94.6,94.56,94.57,7494
348,94.63,94.63,94.59,94.6,6501
349,94.5899,94.625,94.5899,94.62,5003
350,94.54,94.5801,94.54,94.58,9562
351,94.54,94.56,94.54,94.54,6786
352,94.56,94.56,94.52,94.545,11784
353,94.565,94.58,94.55,94.555,19755
354,94.565,94.58,94.56,94.565,4400
355,94.54,94.5799,94.54,94.57,9343
356,94.52,94.555,94.51,94.545,11084
357,94.53,94.53,94.49,94.52,15735
358,94.52,94.54,94.51,94.53,12512
359,94.52,94.535,94.5,94.53,8827
360,94.565,94.575,94.51,94.52,21714
361,94.55,94.56,94.53,94.555,8353
362,94.53,94.555,94.515,94.55,11250
363,94.515,94.53,94.51,94.52,9873
364,94.54,94.54,94.505,94.515,13842
365,94.55,94.57,94.52,94.52,27178
366,94.54,94.555,94.53,94.55,9123
367,94.56,94.57,94.55,94.55,10000
368,94.56,94.56,94.54,94.56,7850
369,94.54,94.55,94.54,94.55,6110
370,94.57,94.58,94.54,94.545,10260
371,94.6,94.655,94.58,94.58,12611
372,94.62,94.63,94.58,94.6,6780
373,94.62,94.65,94.62,94.63,13193
374,94.64,94.66,94.615,94.62,10471
375,94.665,94.68,94.63,94.64,14078
376,94.62,94.66,94.56,94.65,18275
377,94.61,94.62,94.6,94.61,8149
378,94.61,94.62,94.59,94.6,6700
379,94.61,94.63,94.59,94.59,7604
380,94.62,94.63,94.6,94.61,9816
381,94.6301,94.66,94.61,94.625,11536
382,94.65,94.66,94.63,94.6399,12400
383,94.63,94.665,94.6275,94.66,10959
384,94.58,94.6399,94.57,94.635,9694
385,94.6,94.6,94.56,94.575,17299
386,94.63,94.63,94.6,94.6028,13377
387,94.63,94.645,94.62,94.6216,14378
388,94.65,94.66,94.63,94.6325,17602
389,94.68,94.7,94.64,94.65,25350
390,94.7,94.7,94.66,94.685,36350
