EOG,EOG Resources,Energy,3,Oil & Gas Exploration & Production,52161362296,3453914
a1497360600,90.05,90.05,90.05,90.05,21703
1,89.95,89.99,89.9,89.95,2300
2,89.81,89.91,89.61,89.88,10202
3,89.71,89.89,89.57,89.844,6445
4,89.7,89.7,89.51,89.65,4373
5,89.74,89.78,89.64,89.66,2125
6,89.92,89.95,89.74,89.79,7130
7,90.07,90.07,89.87,89.93,4948
8,90.29,90.29,89.994,89.994,3257
9,90.1205,90.31,90.06,90.25,11000
10,90.37,90.37,90.115,90.115,3956
11,90.45,90.45,90.37,90.37,1669
12,90.495,90.53,90.42,90.45,4449
13,90.23,90.48,90.23,90.46,7255
14,90.27,90.3,90.14,90.28,6252
15,90.13,90.257,90.09,90.257,5460
16,90.41,90.415,90.18,90.215,2100
17,90.25,90.43,90.24,90.42,3148
18,90.24,90.24,90.15,90.2,3544
19,90.11,90.24,90.0474,90.2242,7578
20,90.08,90.1,90,90.06,3920
21,89.9125,90.01,89.85,90.01,4539
22,89.87,89.93,89.87,89.93,900
23,89.95,89.995,89.87,89.87,4799
24,90.13,90.185,89.97,89.97,4952
25,90.16,90.16,90.08,90.08,1711
26,90.25,90.25,90.09,90.1,4600
27,90.29,90.33,90.25,90.32,2750
28,90.345,90.39,90.26,90.27,3933
29,90.18,90.37,90.18,90.37,1506
30,90.15,90.24,90.12,90.17,3189
31,89.92,90.1201,89.87,90.1156,7843
32,89.9,89.975,89.85,89.9,11829
33,90.06,90.06,89.895,89.895,4408
34,90.11,90.16,90.07,90.09,2505
35,89.99,90.11,89.99,90.11,1100
36,89.885,90.02,89.85,89.99,9310
37,89.81,89.885,89.81,89.87,3000
38,89.91,89.91,89.81,89.81,4450
39,89.81,89.9,89.81,89.9,1978
40,89.76,89.81,89.75,89.79,4689
41,89.82,89.84,89.74,89.74,4232
42,89.8,89.835,89.79,89.81,3712
43,89.82,89.9,89.8068,89.8068,3602
44,89.69,89.84,89.64,89.815,6910
45,89.81,89.85,89.695,89.7,4300
46,89.84,89.88,89.8,89.8,2000
47,89.63,89.83,89.63,89.83,12669
48,89.71,89.75,89.65,89.66,6867
49,89.7,89.74,89.68,89.7,3397
50,89.68,89.73,89.67,89.715,2600
51,89.72,89.72,89.68,89.71,1800
52,89.73,89.73,89.64,89.725,5145
53,89.91,89.91,89.75,89.78,5800
54,89.85,89.88,89.84,89.88,2350
55,89.87,89.87,89.79,89.83,1400
56,89.83,89.86,89.78,89.86,4400
57,89.78,89.845,89.78,89.82,1100
58,89.885,89.885,89.7805,89.8,2700
59,89.91,89.95,89.9,89.92,3444
60,89.9,89.93,89.88,89.92,4000
61,89.77,89.9,89.76,89.9,2610
62,89.72,89.78,89.72,89.75,1200
63,89.72,89.775,89.68,89.71,8150
64,89.78,89.827,89.74,89.74,1885
65,89.68,89.7811,89.67,89.7811,5812
66,89.64,89.71,89.64,89.65,4112
67,89.62,89.71,89.62,89.67,4200
68,89.69,89.71,89.64,89.65,3100
69,89.715,89.715,89.65,89.71,2016
70,89.68,89.74,89.68,89.7166,5608
71,89.68,89.68,89.62,89.67,7535
72,89.65,89.72,89.65,89.72,2700
73,89.75,89.77,89.652,89.652,2551
74,89.84,89.85,89.76,89.78,6620
75,89.87,89.875,89.81,89.86,3450
76,89.935,89.935,89.82,89.85,3586
77,89.87,90,89.87,89.94,6358
78,89.89,89.9328,89.83,89.86,4155
79,89.905,89.98,89.9,89.9,4936
80,89.975,89.975,89.85,89.87,4955
81,90.07,90.08,89.96,89.97,4100
82,90.07,90.1,90.01,90.1,5300
83,90.04,90.12,90.04,90.0786,10261
84,90.11,90.11,90.03,90.07,3000
85,90.26,90.26,90.13,90.13,6636
86,90.275,90.28,90.23,90.27,4100
87,90.3398,90.38,90.31,90.32,4140
88,90.3,90.3147,90.18,90.31,8586
89,90.3,90.41,90.265,90.265,2798
90,90.2148,90.29,90.2,90.29,5828
91,90.23,90.32,90.16,90.16,4350
92,90.19,90.235,90.19,90.22,5061
93,90.29,90.305,90.16,90.19,5472
94,90.18,90.296,90.18,90.296,7200
95,90.18,90.18,90.1,90.16,6106
96,90.085,90.21,90.08,90.19,11948
97,90.19,90.21,90.08,90.085,10496
98,90.13,90.235,90.13,90.2,2314
99,90.12,90.17,90.11,90.13,3382
100,90.161,90.18,90.13,90.13,4200
101,90.0648,90.155,90.06,90.155,2900
102,90.01,90.13,90,90.07,6550
103,89.95,90.02,89.95,90.02,2900
104,89.92,89.93,89.87,89.93,700
105,89.92,89.92,89.8,89.89,6692
106,89.935,89.99,89.91,89.91,5378
107,90.02,90.03,89.92,89.92,5285
108,90.045,90.045,89.995,90.02,3644
109,89.95,90.02,89.95,90.02,5300
110,89.94,89.97,89.92,89.95,2696
111,90,90,89.9,89.91,3270
112,90.165,90.18,89.99,90.01,4500
113,90.09,90.16,90.06,90.16,7227
114,90.07,90.08,90.04,90.07,2975
115,90.01,90.09,90.01,90.09,1750
116,90.05,90.1042,90.02,90.02,3854
117,90.22,90.22,90.05,90.065,2320
118,90.17,90.215,90.15,90.215,3601
119,90.2,90.2,90.13,90.15,2106
120,90.26,90.3,90.18,90.2,3819
121,90.27,90.3,90.21,90.27,4485
122,90.2525,90.28,90.2301,90.28,2098
123,90.33,90.33,90.21,90.24,5600
124,90.255,90.34,90.255,90.34,1460
125,90.24,90.25,90.21,90.23,3369
126,90.2,90.2412,90.18,90.2412,6751
127,90.31,90.41,90.24,90.25,10425
128,90.5,90.57,90.335,90.335,9887
129,90.48,90.5019,90.38,90.5,23911
130,90.52,90.6,90.45,90.45,5204
131,90.59,90.59,90.43,90.52,6000
132,90.56,90.61,90.49,90.61,4120
133,90.56,90.59,90.495,90.57,3200
134,90.56,90.56,90.48,90.5,1700
135,90.54,90.6,90.53,90.6,7103
136,90.66,90.7,90.525,90.54,7747
137,90.55,90.69,90.55,90.67,4200
138,90.53,90.61,90.53,90.57,2500
139,90.47,90.56,90.46,90.55,2700
140,90.45,90.51,90.45,90.49,2700
141,90.41,90.44,90.39,90.44,900
142,90.45,90.45,90.4,90.41,2137
143,90.43,90.46,90.39,90.42,4586
144,90.402,90.45,90.38,90.43,5445
145,90.27,90.42,90.27,90.42,6015
146,90.24,90.36,90.2233,90.27,8770
147,90.15,90.22,90.11,90.22,4568
148,90.1415,90.16,90.12,90.15,3600
149,90.09,90.16,90.03,90.15,5636
150,90.01,90.17,90.01,90.08,5450
151,90.08,90.08,89.99,90.0479,9300
152,90.015,90.14,90.01,90.12,2500
153,90.06,90.09,90,90,4757
154,90.05,90.07,90.04,90.04,2000
155,90.17,90.17,90.06,90.08,4676
156,90.1099,90.16,90.0829,90.16,1984
157,90.0633,90.14,90.0633,90.11,3959
158,90.05,90.122,90.04,90.09,2818
159,90.12,90.12,90.05,90.05,5750
160,90.15,90.18,90.08,90.09,2404
161,90.13,90.13,90.111,90.13,693
162,90.09,90.1299,90.07,90.11,3600
163,90.07,90.09,90.07,90.08,525
164,90.12,90.14,90.0875,90.0875,3350
165,90.16,90.16,90.13,90.13,1260
166,90.17,90.24,90.1675,90.17,3000
167,90.205,90.21,90.08,90.17,6850
168,90.21,90.21,90.13,90.19,3950
169,90.14,90.2282,90.14,90.2282,1796
170,90.18,90.2,90.12,90.12,1400
171,90.21,90.21,90.18,90.2,1600
172,90.28,90.29,90.25,90.25,3868
173,90.31,90.33,90.3,90.3,1000
174,90.32,90.34,90.29,90.33,2600
175,90.27,90.32,90.24,90.32,1460
176,90.21,90.26,90.21,90.24,1800
177,90.2808,90.29,90.23,90.2399,1711
178,90.25,90.25,90.25,90.25,100
179,90.33,90.33,90.26,90.26,1863
180,90.34,90.4,90.34,90.36,3001
181,90.29,90.36,90.28,90.34,5673
182,90.29,90.3,90.27,90.27,5334
183,90.225,90.28,90.22,90.28,4419
184,90.21,90.23,90.17,90.21,3473
185,90.18,90.22,90.18,90.21,1551
186,90.2,90.2,90.15,90.1748,4200
187,90.22,90.23,90.2,90.2,1800
188,90.17,90.2263,90.17,90.22,664
189,90.17,90.19,90.09,90.19,5510
190,90.16,90.2,90.13,90.2,2400
191,90.12,90.13,90.08,90.13,3590
192,90.078,90.14,90.07,90.1203,2700
193,90.14,90.14,90.08,90.08,1321
194,90.09,90.14,90.09,90.12,1200
195,90.08,90.1,90.0542,90.08,2438
196,90.05,90.06,90.05,90.06,300
197,90.01,90.03,90.01,90.02,912
198,89.99,90.05,89.97,90.03,13093
199,89.97,90.01,89.94,89.98,8401
200,89.95,89.95,89.9,89.95,2050
201,89.9678,89.99,89.95,89.99,3548
202,89.92,90,89.92,89.955,2300
203,89.92,89.9699,89.91,89.92,2000
204,89.85,89.91,89.85,89.91,1653
205,89.89,89.89,89.86,89.86,1801
206,89.93,89.9499,89.8653,89.88,2511
207,89.94,89.94,89.88,89.92,1998
208,89.93,89.93,89.9,89.93,1219
209,89.9278,89.93,89.9,89.92,1547
210,89.9,89.93,89.89,89.9298,2452
211,89.91,89.91,89.86,89.9,3597
212,89.89,89.9388,89.89,89.925,1600
213,89.89,89.89,89.84,89.86,2767
214,89.92,89.92,89.89,89.89,400
215,89.94,89.94,89.91,89.935,2397
216,89.985,90.07,89.96,89.96,3600
217,89.96,89.99,89.96,89.96,960
218,90.015,90.09,89.98,89.98,6957
219,90.09,90.09,90.05,90.05,3703
220,90.13,90.14,90.03,90.05,3300
221,90.11,90.14,90.11,90.14,1206
222,90.095,90.0972,90.06,90.0972,1100
223,90.17,90.17,90.095,90.11,2790
224,90.13,90.16,90.1,90.15,4997
225,90.1,90.15,90.09,90.125,2845
226,90.11,90.12,90.11,90.12,200
227,90.12,90.12,90.08,90.093,3067
228,90.08,90.11,90.08,90.09,1454
229,90.02,90.07,90.02,90.07,1400
230,90.07,90.0708,90.02,90.02,4700
231,90.13,90.13,90.04,90.055,3937
232,90.08,90.15,90.08,90.13,5704
233,90.1,90.1,90.04,90.07,3808
234,90.0775,90.11,90.07,90.09,2762
235,90.115,90.13,90.07,90.08,2600
236,90.135,90.15,90.128,90.139,4600
237,90.11,90.1197,90.1,90.1,400
238,90.12,90.12,90.08,90.09,3739
239,90.18,90.19,90.12,90.13,3500
240,90.2375,90.26,90.18,90.18,6968
241,90.16,90.21,90.16,90.21,900
242,90.17,90.19,90.15,90.15,2220
243,90.19,90.21,90.19,90.19,2300
244,90.14,90.16,90.12,90.16,1600
245,90.19,90.19,90.11,90.145,5436
246,90.23,90.23,90.19,90.2,2700
247,90.19,90.25,90.19,90.2342,3460
248,90.19,90.21,90.18,90.21,3600
249,90.17,90.2032,90.17,90.2032,3590
250,90.21,90.23,90.17,90.17,32796
251,90.16,90.21,90.15,90.2,2288
252,90.105,90.14,90.08,90.14,6100
253,90.05,90.105,90.05,90.105,1600
254,90,90.05,90,90.03,1700
255,90.04,90.06,89.98,90,4104
256,90.06,90.07,90.035,90.035,2563
257,90.08,90.11,90.08,90.085,2850
258,90.04,90.07,90.0201,90.07,2683
259,90.085,90.1,90.03,90.0503,2300
260,90.13,90.13,90.0797,90.11,4064
261,90.13,90.13,90.115,90.13,1679
262,90.07,90.14,90.06,90.1367,3324
263,90.14,90.14,90.06,90.09,4105
264,90.04,90.14,90.04,90.14,4465
265,90.09,90.1,90.05,90.05,2778
266,90.04,90.12,90.02,90.08,4392
267,90.05,90.09,90.05,90.06,1500
268,90.0444,90.0444,89.98,90.03,2800
269,90,90.06,90,90.06,900
270,90.05,90.05,89.99,90.005,2426
271,90.1,90.12,90.05,90.05,3300
272,90.12,90.12,90.09,90.11,2619
273,90.14,90.16,90.105,90.105,2900
274,90.17,90.17,90.14,90.14,1725
275,90.13,90.16,90.11,90.15,5368
276,90.105,90.1448,90.105,90.1448,12884
277,90.11,90.12,90.1,90.12,700
278,90.23,90.27,90.11,90.12,10932
279,90.27,90.295,90.17,90.22,15304
280,90.25,90.28,90.25,90.28,1400
281,90.3192,90.33,90.25,90.25,5857
282,90.25,90.31,90.25,90.29,5610
283,90.205,90.2512,90.19,90.2512,3300
284,90.25,90.27,90.16,90.205,9800
285,90.25,90.29,90.24,90.24,1600
286,90.26,90.26,90.23,90.245,2710
287,90.26,90.28,90.255,90.26,4975
288,90.34,90.34,90.25,90.26,4700
289,90.31,90.37,90.31,90.34,5124
290,90.335,90.345,90.32,90.32,3025
291,90.365,90.37,90.335,90.34,5885
292,90.325,90.36,90.3001,90.36,3749
293,90.45,90.49,90.335,90.335,9625
294,90.43,90.46,90.4,90.45,4076
295,90.48,90.48,90.43,90.44,2300
296,90.47,90.51,90.44,90.47,19278
297,90.44,90.51,90.44,90.45,4228
298,90.48,90.49,90.39,90.43,5269
299,90.42,90.47,90.42,90.47,1969
300,90.38,90.43,90.38,90.42,2765
301,90.46,90.48,90.36,90.36,14057
302,90.41,90.43,90.41,90.43,800
303,90.37,90.44,90.35,90.43,7031
304,90.395,90.395,90.32,90.35,5650
305,90.37,90.4046,90.34,90.4,7914
306,90.365,90.37,90.33,90.37,1700
307,90.35,90.37,90.32,90.36,9200
308,90.39,90.4,90.35,90.36,5611
309,90.485,90.5,90.38,90.38,5000
310,90.435,90.4965,90.435,90.485,2799
311,90.41,90.43,90.4,90.42,4112
312,90.35,90.4,90.35,90.4,3280
313,90.305,90.35,90.305,90.34,3200
314,90.295,90.32,90.27,90.29,8672
315,90.3201,90.33,90.28,90.29,6400
316,90.3,90.34,90.3,90.325,4200
317,90.26,90.295,90.24,90.295,7600
318,90.27,90.31,90.25,90.26,18200
319,90.2,90.33,90.2,90.24,26527
320,90.195,90.26,90.175,90.2102,8905
321,90.1701,90.21,90.165,90.195,4100
322,90.14,90.19,90.14,90.17,4800
323,90.13,90.15,90.12,90.14,2600
324,90.215,90.215,90.1,90.13,11476
325,90.19,90.215,90.17,90.215,1830
326,90.18,90.21,90.135,90.175,7700
327,90.17,90.2222,90.17,90.17,4275
328,90.171,90.18,90.155,90.16,2300
329,90.12,90.17,90.11,90.17,2000
330,90.16,90.17,90.13,90.14,4234
331,90.18,90.22,90.16,90.16,6320
332,90.2,90.2027,90.17,90.19,2600
333,90.26,90.29,90.205,90.21,7160
334,90.29,90.3,90.25,90.25,5717
335,90.3,90.3001,90.27,90.27,5333
336,90.32,90.325,90.29,90.325,4121
337,90.42,90.42,90.33,90.33,3425
338,90.3901,90.43,90.3901,90.415,6068
339,90.4497,90.47,90.39,90.39,11628
340,90.42,90.4368,90.4,90.435,2536
341,90.5,90.5,90.42,90.42,3205
342,90.53,90.54,90.49,90.51,6073
343,90.56,90.56,90.51,90.53,2400
344,90.5348,90.5348,90.5,90.53,3767
345,90.502,90.54,90.502,90.52,1400
346,90.5,90.55,90.5,90.51,6455
347,90.48,90.5,90.475,90.49,3790
348,90.49,90.5,90.465,90.48,6952
349,90.495,90.5,90.485,90.5,2606
350,90.53,90.53,90.51,90.5176,1400
351,90.545,90.55,90.51,90.525,8100
352,90.52,90.54,90.52,90.54,5600
353,90.47,90.54,90.43,90.53,13241
354,90.4639,90.49,90.43,90.47,8737
355,90.43,90.49,90.43,90.465,17000
356,90.43,90.45,90.42,90.44,4588
357,90.43,90.48,90.425,90.43,5519
358,90.395,90.435,90.37,90.43,5900
359,90.4,90.445,90.385,90.4,6597
360,90.45,90.46,90.37,90.385,6171
361,90.465,90.5,90.45,90.45,5105
362,90.41,90.47,90.405,90.47,9204
363,90.42,90.43,90.395,90.4,4676
364,90.31,90.42,90.28,90.42,15159
365,90.275,90.31,90.26,90.31,5306
366,90.26,90.31,90.26,90.275,7843
367,90.22,90.27,90.19,90.26,11202
368,90.2108,90.2108,90.15,90.21,10984
369,90.25,90.28,90.22,90.22,8118
370,90.26,90.275,90.2399,90.2399,8300
371,90.34,90.34,90.27,90.27,12684
372,90.33,90.37,90.32,90.37,9010
373,90.36,90.39,90.338,90.34,8780
374,90.36,90.37,90.33,90.37,6437
375,90.37,90.4,90.345,90.35,13968
376,90.41,90.43,90.355,90.38,14316
377,90.5,90.5,90.41,90.41,13015
378,90.51,90.51,90.46,90.51,11950
379,90.53,90.53,90.5,90.51,4359
380,90.51,90.53,90.47,90.51,13030
381,90.59,90.61,90.51,90.51,15732
382,90.57,90.61,90.55,90.59,8605
383,90.565,90.58,90.55,90.563,13377
384,90.55,90.57,90.54,90.57,12507
385,90.51,90.555,90.51,90.555,12128
386,90.55,90.575,90.51,90.515,23270
387,90.5401,90.5699,90.54,90.555,21137
388,90.5,90.55,90.5,90.545,27619
389,90.55,90.56,90.49,90.5,31129
390,90.56,90.62,90.54,90.55,45775
