EOG,EOG Resources,Energy,3,Oil & Gas Exploration & Production,50013798103,3502136
a1497619800,87.57,87.57,87.57,87.57,1200
1,87.18,87.66,87.17,87.58,448774
2,87.21,87.34,87.11,87.34,2992
3,87.12,87.56,87.07,87.365,10572
4,87.16,87.28,87.16,87.28,7500
5,87.31,87.31,87.18,87.265,2300
6,87.3784,87.38,87.16,87.35,12655
7,87.3816,87.505,87.37,87.38,11666
8,87.44,87.46,87.38,87.38,3198
9,87.36,87.44,87.24,87.41,9303
10,87.3,87.34,87.26,87.29,8050
11,87.25,87.3299,87.12,87.3299,8146
12,87.28,87.345,87.28,87.28,1600
13,87.355,87.39,87.29,87.3,3414
14,87.33,87.4096,87.33,87.34,4245
15,87.315,87.38,87.3,87.34,2938
16,87.31,87.35,87.31,87.345,5950
17,87.4,87.41,87.35,87.35,2531
18,87.51,87.64,87.44,87.44,7620
19,87.505,87.57,87.44,87.52,2670
20,87.558,87.5799,87.48,87.48,4513
21,87.56,87.6,87.52,87.58,7216
22,87.63,87.67,87.555,87.56,21864
23,87.9,87.9,87.63,87.63,35161
24,87.64,87.855,87.55,87.855,29918
25,87.5999,87.66,87.5999,87.65,18053
26,87.65,87.65,87.55,87.59,6450
27,87.76,87.76,87.59,87.63,11224
28,87.71,87.79,87.7,87.79,9880
29,87.7,87.71,87.59,87.7,13254
30,87.68,87.7,87.62,87.66,15223
31,87.7,87.77,87.64,87.66,24915
32,87.84,87.84,87.71,87.75,5477
33,87.85,87.85,87.79,87.81,9039
34,87.83,87.88,87.82,87.85,7275
35,87.75,87.835,87.75,87.835,4823
36,87.76,87.78,87.73,87.78,9478
37,87.84,87.85,87.75,87.77,38757
38,87.75,87.84,87.71,87.82,8236
39,87.79,87.8,87.735,87.735,14727
40,87.85,87.85,87.76,87.79,6543
41,87.82,87.84,87.79,87.82,9143
42,87.86,87.87,87.81,87.84,9080
43,87.9,87.9,87.84,87.85,16164
44,87.83,87.9,87.83,87.88,13027
45,87.91,87.91,87.79,87.82,20744
46,87.825,87.92,87.79,87.91,15247
47,87.87,87.89,87.77,87.81,9787
48,87.85,87.89,87.825,87.87,4985
49,87.97,87.99,87.84,87.86,13429
50,88.03,88.07,87.99,87.99,3200
51,87.89,88.05,87.89,88.02,15090
52,87.85,87.91,87.85,87.87,40997
53,87.93,87.93,87.84,87.85,7337
54,88.09,88.09,87.9,87.9,4693
55,88.16,88.17,88.06,88.07,9300
56,88.21,88.22,88.14,88.155,6934
57,88,88.22,87.98,88.22,9933
58,88.03,88.04,87.99,88.01,10740
59,88.14,88.21,88.02,88.03,13923
60,87.935,88.13,87.91,88.11,52218
61,87.9,87.95,87.8677,87.95,11053
62,87.945,87.96,87.87,87.91,11343
63,87.895,87.94,87.84,87.94,7682
64,87.91,87.96,87.87,87.8896,24560
65,87.9,87.94,87.89,87.94,7592
66,87.91,87.93,87.865,87.91,9204
67,87.9065,87.91,87.86,87.9,7110
68,87.92,87.96,87.86,87.89,27243
69,87.945,87.95,87.9,87.93,5873
70,87.9425,87.97,87.92,87.94,44744
71,87.94,87.99,87.92,87.95,47053
72,87.92,87.95,87.89,87.93,25528
73,87.945,87.95,87.875,87.91,14741
74,87.92,87.98,87.91,87.93,15711
75,87.94,87.97,87.88,87.9,10615
76,87.91,87.95,87.89,87.95,13132
77,87.94,87.95,87.89,87.9,13875
78,87.935,87.94,87.885,87.92,6615
79,87.94,87.95,87.89,87.94,14534
80,87.89,87.97,87.89,87.94,21034
81,87.95,87.97,87.895,87.895,29419
82,87.9,87.96,87.89,87.96,15273
83,87.9298,87.95,87.89,87.9,10312
84,87.84,87.94,87.84,87.93,24315
85,87.75,87.855,87.71,87.82,12677
86,87.63,87.76,87.615,87.74,10941
87,87.64,87.65,87.56,87.62,20977
88,87.64,87.66,87.62,87.66,5700
89,87.64,87.66,87.59,87.64,8269
90,87.8,87.8,87.64,87.66,9165
91,87.835,87.87,87.82,87.82,3616
92,87.99,87.99,87.82,87.82,5800
93,87.91,88.01,87.91,87.98,3844
94,87.86,87.96,87.86,87.92,2900
95,87.98,87.99,87.845,87.845,3469
96,88.05,88.08,87.98,87.98,5253
97,88.02,88.06,88,88.05,2325
98,88.18,88.2,88.02,88.02,5243
99,88.08,88.2,88.07,88.18,4091
100,88,88.05,88,88.04,1400
101,87.99,88.04,87.99,87.99,4394
102,87.9401,87.99,87.9401,87.98,5484
103,88.12,88.13,87.97,87.97,2400
104,88.05,88.12,88.05,88.12,1200
105,88.051,88.09,88.051,88.06,2800
106,88,88.08,87.97,88.07,5295
107,87.99,88.16,87.99,88.03,12964
108,88.01,88.02,88,88,1300
109,88.035,88.11,88.03,88.04,2650
110,88.0892,88.1267,88.05,88.05,1552
111,88.13,88.14,88.05,88.07,3000
112,88.1145,88.17,88.08,88.14,13762
113,88.09,88.1,88.06,88.1,4748
114,88.1,88.131,88.06,88.095,4100
115,88.12,88.12,88.09,88.1,1600
116,88.03,88.13,87.99,88.13,12251
117,88.04,88.09,88.04,88.08,2358
118,87.95,88.02,87.95,88.02,4400
119,87.96,87.99,87.95,87.97,10626
120,87.96,87.97,87.93,87.96,6492
121,87.95,88,87.94,87.98,6064
122,87.92,87.96,87.91,87.955,5322
123,87.91,87.97,87.91,87.93,6979
124,87.89,87.92,87.87,87.9,3996
125,87.91,87.94,87.87,87.89,5092
126,87.89,87.92,87.86,87.9,5113
127,87.8,87.885,87.77,87.885,10936
128,87.77,87.82,87.77,87.8,2603
129,87.76,87.78,87.73,87.745,6400
130,87.71,87.76,87.69,87.76,7233
131,87.72,87.8,87.7,87.725,6557
132,87.71,87.73,87.66,87.71,6926
133,87.63,87.7,87.63,87.7,5000
134,87.65,87.7,87.62,87.62,19123
135,87.67,87.7,87.655,87.655,2100
136,87.68,87.7,87.615,87.65,8063
137,87.7,87.71,87.69,87.69,3130
138,87.74,87.76,87.68,87.69,5500
139,87.78,87.79,87.75,87.76,4438
140,87.69,87.75,87.69,87.75,1300
141,87.68,87.71,87.655,87.71,3400
142,87.71,87.73,87.6801,87.7,2700
143,87.72,87.76,87.7,87.75,7500
144,87.69,87.725,87.69,87.72,3800
145,87.66,87.72,87.66,87.7,6300
146,87.67,87.69,87.65,87.65,4926
147,87.65,87.6627,87.65,87.65,2967
148,87.68,87.68,87.63,87.63,2656
149,87.73,87.7301,87.67,87.6827,3350
150,87.74,87.75,87.72,87.74,1000
151,87.7201,87.74,87.72,87.74,2378
152,87.66,87.72,87.66,87.72,2600
153,87.7,87.7,87.66,87.68,5641
154,87.71,87.71,87.67,87.7,2371
155,87.68,87.71,87.65,87.7,11180
156,87.69,87.71,87.66,87.66,3400
157,87.7,87.71,87.69,87.71,2283
158,87.63,87.68,87.63,87.68,600
159,87.65,87.65,87.61,87.635,5022
160,87.63,87.67,87.63,87.66,4550
161,87.6601,87.68,87.63,87.63,1700
162,87.67,87.67,87.65,87.66,2300
163,87.6497,87.685,87.64,87.6401,2700
164,87.72,87.72,87.6,87.62,2919
165,87.69,87.705,87.69,87.705,200
166,87.71,87.73,87.695,87.7,5400
167,87.78,87.8,87.74,87.74,2400
168,87.73,87.79,87.73,87.79,5171
169,87.67,87.74,87.65,87.74,4050
170,87.72,87.73,87.655,87.655,3300
171,87.71,87.72,87.71,87.72,600
172,87.74,87.74,87.68,87.7,2400
173,87.7199,87.755,87.7,87.755,1550
174,87.74,87.74,87.7,87.7,1436
175,87.74,87.75,87.74,87.74,900
176,87.72,87.76,87.72,87.745,3200
177,87.72,87.72,87.71,87.72,823
178,87.68,87.72,87.66,87.72,2250
179,87.67,87.68,87.67,87.68,1096
180,87.65,87.68,87.62,87.65,2000
181,87.6336,87.66,87.63,87.64,900
182,87.65,87.65,87.64,87.64,400
183,87.75,87.76,87.65,87.66,3800
184,87.73,87.77,87.73,87.73,1502
185,87.69,87.74,87.68,87.74,1775
186,87.65,87.71,87.63,87.69,2775
187,87.65,87.67,87.64,87.66,3662
188,87.66,87.67,87.615,87.65,8204
189,87.64,87.6545,87.64,87.6545,1150
190,87.64,87.64,87.63,87.63,1100
191,87.66,87.66,87.63,87.64,2000
192,87.77,87.77,87.66,87.67,2850
193,87.76,87.76,87.74,87.74,600
194,87.7999,87.8025,87.75,87.75,3815
195,87.8099,87.82,87.79,87.79,4000
196,87.7799,87.7998,87.77,87.795,1635
197,87.765,87.77,87.74,87.77,3400
198,87.75,87.75,87.72,87.75,2500
199,87.69,87.75,87.69,87.75,4269
200,87.68,87.71,87.66,87.7,7583
201,87.65,87.69,87.65,87.69,3031
202,87.6822,87.69,87.655,87.67,2775
203,87.67,87.67,87.64,87.67,2220
204,87.6303,87.655,87.6303,87.64,2100
205,87.66,87.66,87.645,87.645,1800
206,87.67,87.72,87.63,87.65,7353
207,87.72,87.72,87.66,87.66,2613
208,87.74,87.74,87.7,87.71,4575
209,87.78,87.78,87.74,87.74,1660
210,87.78,87.79,87.78,87.79,1200
211,87.73,87.78,87.73,87.78,3700
212,87.8,87.8,87.72,87.72,3455
213,87.81,87.81,87.78,87.81,5509
214,87.84,87.84,87.8,87.82,3728
215,87.87,87.88,87.84,87.84,4521
216,87.84,87.87,87.84,87.86,1700
217,87.805,87.82,87.79,87.82,1337
218,87.8,87.84,87.8,87.83,1400
219,87.8259,87.8259,87.8,87.8,800
220,87.77,87.815,87.77,87.815,1600
221,87.76,87.77,87.76,87.77,200
222,87.72,87.79,87.72,87.78,1933
223,87.8102,87.85,87.75,87.75,4550
224,87.79,87.805,87.79,87.805,1600
225,87.8,87.86,87.8,87.8,3347
226,87.83,87.86,87.83,87.84,636
227,87.84,87.84,87.81,87.831,1500
228,87.87,87.87,87.8121,87.83,2305
229,87.935,87.94,87.87,87.87,5844
230,87.915,87.95,87.89,87.93,2528
231,87.96,87.96,87.9116,87.9116,650
232,87.92,87.95,87.9,87.95,5813
233,87.95,87.95,87.89,87.92,2049
234,87.89,87.92,87.89,87.92,1350
235,87.91,87.94,87.89,87.91,3114
236,87.94,87.94,87.9,87.91,900
237,87.91,87.93,87.9,87.93,2200
238,87.9,87.92,87.88,87.92,2200
239,87.96,87.97,87.89,87.89,2700
240,87.93,87.98,87.89,87.98,2200
242,87.94,87.95,87.92,87.92,1502
243,87.88,87.93,87.88,87.93,2000
244,87.88,87.91,87.88,87.9,2813
245,87.8611,87.88,87.8611,87.87,600
246,87.91,87.91,87.87,87.88,1600
247,87.86,87.91,87.86,87.91,1000
248,87.85,87.9,87.84,87.89,2993
249,87.84,87.84,87.82,87.84,1460
250,87.88,87.88,87.83,87.83,1500
251,87.85,87.85,87.83,87.85,977
252,87.9,87.9,87.84,87.85,2995
253,87.84,87.88,87.84,87.88,1400
254,87.91,87.91,87.835,87.85,8717
255,87.83,87.9,87.82,87.9,8497
256,87.89,87.89,87.84,87.84,6283
257,87.85,87.89,87.85,87.88,15180
258,87.795,87.87,87.795,87.87,4852
259,87.78,87.81,87.78,87.81,890
260,87.78,87.7917,87.77,87.7917,1200
261,87.77,87.77,87.75,87.751,3799
262,87.82,87.82,87.7612,87.78,3282
263,87.8101,87.84,87.8,87.82,5821
264,87.82,87.86,87.82,87.84,1000
265,87.84,87.84,87.8,87.82,1596
266,87.81,87.81,87.8,87.81,6769
267,87.85,87.85,87.8,87.82,3830
268,87.9,87.9,87.85,87.85,1345
269,87.89,87.91,87.88,87.91,500
270,87.9,87.92,87.88,87.89,1500
271,87.94,87.94,87.9,87.917,3650
272,88,88.01,87.94,87.94,8545
273,88.035,88.035,88,88,800
274,88.03,88.0599,88.02,88.05,2535
275,88.02,88.02,88,88.01,1912
276,88.05,88.05,88.02,88.03,1090
277,88.06,88.06,88.04,88.04,3331
278,88.06,88.06,88,88.05,4973
279,88.185,88.185,88.05,88.05,3691
280,88.11,88.18,88.11,88.18,3701
281,88.15,88.15,88.12,88.12,1600
282,88.11,88.155,88.11,88.13,2150
283,88.0999,88.13,88.09,88.1,2293
284,88.09,88.11,88.08,88.08,1100
285,88.104,88.12,88.1,88.1,3400
286,88.02,88.09,88.01,88.09,4723
287,88.08,88.08,88.01,88.02,3655
288,87.98,88.06,87.98,88.06,7648
289,87.98,87.9992,87.98,87.98,1500
290,87.95,88,87.95,87.98,3972
291,88.01,88.01,87.95,87.96,3700
292,87.98,88.03,87.98,88,4368
293,88.04,88.07,87.99,87.99,2531
294,88.09,88.09,88.04,88.04,4015
295,88.12,88.12,88.05,88.09,4220
296,88.16,88.2,88.1,88.11,4519
297,88.14,88.1798,88.14,88.16,3638
298,88.21,88.22,88.12,88.12,5560
299,88.12,88.18,88.12,88.18,3151
300,88.12,88.17,88.09,88.1,5806
301,88.05,88.12,88.05,88.09,5794
302,88.08,88.1,88.04,88.0744,6296
303,88.1,88.12,88.05,88.075,3950
304,88.0214,88.1,88.02,88.1,2973
305,88.03,88.04,87.98,88,3031
306,88,88.05,87.99,88.03,3042
307,87.97,88,87.97,88,5000
308,87.98,88.01,87.98,87.99,1767
309,88.08,88.08,87.98,87.98,2450
310,88.06,88.085,88.03,88.085,4700
311,88.06,88.07,88.05,88.0633,3459
312,88.04,88.07,88.03,88.06,3000
313,88.01,88.03,87.97,88.03,4645
314,88.07,88.08,88.02,88.02,1600
315,88.05,88.08,88.05,88.08,4523
316,88.085,88.09,88.03,88.0585,3260
317,88.06,88.09,88.06,88.085,4800
318,88.07,88.08,88.05,88.062,3200
319,88.08,88.11,88.08,88.09,3567
320,88.0799,88.08,88.04,88.07,2571
321,88.06,88.085,88.05,88.0601,6621
322,88.08,88.09,88.055,88.06,8988
323,88.15,88.15,88.05,88.07,3250
324,88.13,88.1402,88.13,88.14,1401
325,88.0525,88.13,88.04,88.12,4416
326,88.04,88.05,88.03,88.03,2329
327,88.04,88.05,88.02,88.03,2400
328,88.04,88.05,88.03,88.05,1743
329,88.07,88.15,88.03,88.0451,4772
330,88.02,88.071,87.995,88.07,4678
331,88,88.07,88,88.05,1800
332,88.04,88.06,88,88,2200
333,88.03,88.05,88,88.04,4608
334,88.11,88.13,88.06,88.06,2802
335,88.01,88.1,88.01,88.1,3953
336,88.05,88.06,88.01,88.02,2552
337,88.02,88.06,87.99,88.06,3400
338,88.07,88.07,88.02,88.02,2600
339,88.06,88.06,88.02,88.05,2200
340,88.06,88.1,88.03,88.06,12938
341,88.06,88.08,88.02,88.06,3537
342,88.1,88.11,88.05,88.06,1300
343,88.13,88.13,88.09,88.12,4700
344,88.04,88.13,88.04,88.13,4572
345,88.03,88.04,87.99,88.04,6261
346,88.05,88.07,88.02,88.03,3607
347,88.1,88.1,88.05,88.06,2733
348,88.06,88.12,88.01,88.12,6163
349,88.06,88.07,88.03,88.054,3974
350,88.05,88.05,88.02,88.05,4400
351,88.07,88.072,88.05,88.06,1950
352,88.1,88.1,88.07,88.07,2400
353,88.04,88.09,88.03,88.09,5245
354,88.09,88.1,88.03,88.04,4665
355,88.16,88.16,88.11,88.11,4348
356,88.24,88.24,88.15,88.15,3098
357,88.3,88.32,88.25,88.25,11497
358,88.29,88.32,88.29,88.3,6587
359,88.26,88.28,88.22,88.28,6510
360,88.2414,88.28,88.24,88.27,5172
361,88.295,88.31,88.24,88.24,7765
362,88.38,88.4,88.295,88.3,8567
363,88.41,88.41,88.37,88.395,7000
364,88.38,88.445,88.37,88.41,5408
365,88.38,88.39,88.365,88.37,6100
366,88.4201,88.47,88.36,88.38,12523
367,88.44,88.48,88.42,88.42,9628
368,88.46,88.48,88.43,88.43,7805
369,88.41,88.47,88.38,88.46,9900
370,88.43,88.46,88.41,88.41,9657
371,88.36,88.43,88.36,88.43,9509
372,88.4,88.415,88.325,88.35,19864
373,88.48,88.5,88.4,88.41,11652
374,88.51,88.52,88.47,88.48,11673
375,88.46,88.52,88.42,88.5,22244
376,88.41,88.47,88.37,88.45,17691
377,88.33,88.4,88.32,88.4,13546
378,88.34,88.345,88.31,88.34,13018
379,88.38,88.39,88.34,88.34,12622
380,88.39,88.405,88.37,88.38,15773
381,88.41,88.43,88.4,88.4,17459
382,88.4101,88.42,88.4,88.41,14412
383,88.41,88.43,88.38,88.41,15540
384,88.4792,88.48,88.41,88.42,13949
385,88.44,88.48,88.43,88.475,19026
386,88.41,88.43,88.38,88.43,21154
387,88.465,88.47,88.41,88.41,31310
388,88.48,88.48,88.45,88.47,29339
389,88.43,88.48,88.42,88.47,29107
390,88.505,88.59,88.4,88.43,163748
