PPG,PPG Industries,Materials,8,Specialty Chemicals,28432874566,1187852
a1497619920,111.2,111.2,111.2,111.2,108
1,111.52,111.65,111.52,111.65,228209
2,111.64,111.64,111.54,111.54,1795
3,111.69,111.74,111.66,111.66,1103
4,111.325,111.68,111.325,111.66,3000
5,111.43,111.43,111.43,111.43,100
7,111.41,111.41,111.41,111.41,2100
8,111.39,111.41,111.36,111.4,1100
9,111.35,111.4,111.285,111.39,10100
10,111.085,111.36,111.085,111.35,6400
11,111.29,111.29,111.08,111.08,4982
12,111.34,111.36,111.32,111.32,3078
13,111.14,111.325,111.14,111.325,4034
14,111.14,111.2,111.14,111.18,700
15,111.19,111.19,111.14,111.14,301
16,111.18,111.23,111.17,111.23,2500
17,111.18,111.1968,111.17,111.17,2949
18,111.24,111.26,111.17,111.17,2450
19,111.12,111.26,111.12,111.26,2800
20,111.11,111.13,111.06,111.12,2151
21,111.05,111.0699,111.02,111.055,3200
22,111.12,111.12,111.03,111.03,1200
23,111.09,111.13,111.06,111.11,23350
24,111.08,111.15,111.07,111.14,3409
25,111.09,111.1,111.07,111.07,1487
26,111.08,111.09,111.07,111.08,3800
27,111.02,111.085,111.02,111.085,4509
28,111.04,111.07,110.96,111,4484
29,111.08,111.1,111.055,111.055,1710
30,111,111,110.97,110.99,2100
31,111.06,111.06,111.01,111.01,700
32,111.07,111.09,111.07,111.07,1846
33,110.995,111.06,110.995,111.05,1302
34,111.04,111.12,111.03,111.03,15166
35,111.06,111.06,111,111,1100
36,111.03,111.045,111.02,111.03,1329
37,111.07,111.07,111.05,111.05,400
38,111.11,111.11,111.11,111.11,300
39,111.065,111.16,111.02,111.13,5648
40,111.11,111.11,111.0506,111.08,1205
41,111.13,111.13,111.13,111.13,200
42,111.09,111.12,111.09,111.12,600
43,111.11,111.11,111.06,111.085,2290
44,111.13,111.13,111.12,111.12,400
45,111.08,111.11,111.07,111.11,800
46,111.07,111.11,111.07,111.07,17022
47,111.095,111.12,111.07,111.07,6412
48,111,111.08,111,111.08,1700
49,110.93,111.01,110.92,110.97,5966
50,110.97,110.97,110.94,110.94,1100
51,110.98,110.98,110.98,110.98,1100
52,111,111.02,110.965,110.965,800
53,111.04,111.04,110.98,111.02,5500
54,111.06,111.1096,111.06,111.07,1100
55,111.03,111.03,110.99,110.99,850
56,111.1,111.1,111.04,111.05,1600
57,111.0458,111.105,111.03,111.105,1366
58,111.1,111.1,111.02,111.02,2000
59,111.085,111.09,111.07,111.09,1105
60,111.09,111.09,111.09,111.09,300
61,111.08,111.08,111.07,111.07,800
62,111.08,111.08,111.08,111.08,200
63,111.13,111.17,111.09,111.09,5400
64,111.1204,111.15,111.1204,111.15,1150
65,111.11,111.13,111.1,111.12,3252
66,111.17,111.17,111.11,111.11,2460
67,111.1733,111.1733,111.1679,111.1679,967
68,111.13,111.14,111.13,111.14,400
70,111.175,111.18,111.14,111.16,1400
71,111.16,111.16,111.15,111.16,1152
72,111.12,111.12,111.12,111.12,100
74,111.17,111.17,111.14,111.14,2798
75,111.1,111.17,111.1,111.17,7400
76,111.09,111.1,111.09,111.1,705
77,111.15,111.15,111.09,111.09,3868
78,111.16,111.16,111.155,111.1565,304
79,111.15,111.17,111.15,111.15,350
80,111.1,111.13,111.1,111.13,300
81,111.08,111.1,111.07,111.1,24727
82,111.03,111.075,111.03,111.075,3700
83,111.01,111.06,111.01,111.04,26559
84,110.97,110.98,110.97,110.98,200
85,110.96,110.98,110.96,110.96,700
86,111.02,111.02,110.975,110.98,22100
87,111.02,111.03,111.02,111.03,200
88,111.03,111.03,110.99,111,1881
89,111.04,111.06,111.04,111.04,800
90,111.01,111.02,111,111.02,1000
91,111.02,111.05,111.02,111.05,2600
92,110.9963,111.04,110.9963,111.03,500
93,110.99,111,110.99,110.99,1600
94,110.97,110.99,110.97,110.99,1820
95,111,111.02,111,111,1711
96,110.98,110.98,110.98,110.98,100
97,111,111,110.96,110.96,3426
98,110.96,110.99,110.96,110.99,300
100,110.98,110.98,110.97,110.97,501
101,110.99,110.99,110.966,110.966,450
102,110.98,110.99,110.96,110.99,1200
103,111,111,110.98,110.99,1835
104,110.97,110.98,110.94,110.98,800
107,110.97,110.985,110.97,110.98,900
108,110.97,110.97,110.96,110.96,300
110,110.97,110.9701,110.96,110.97,1900
111,110.99,111,110.96,110.96,3800
112,110.96,110.96,110.96,110.96,300
113,110.91,110.98,110.91,110.96,2300
114,110.92,110.92,110.91,110.91,2000
115,110.89,110.91,110.89,110.91,500
116,110.91,110.92,110.89,110.89,1300
117,110.92,110.94,110.91,110.91,10100
118,110.92,110.93,110.91,110.91,11605
119,110.93,110.93,110.88,110.91,4700
120,110.86,110.9,110.86,110.9,20704
121,110.9,110.91,110.89,110.91,1342
122,110.87,110.87,110.87,110.87,100
123,110.91,110.91,110.9,110.9,200
124,110.86,110.9,110.86,110.89,1505
125,110.86,110.88,110.86,110.88,1500
126,110.87,110.88,110.86,110.86,1300
127,110.87,110.88,110.87,110.88,400
128,110.87,110.89,110.86,110.88,2500
129,110.9,110.9,110.9,110.9,400
130,110.88,110.91,110.88,110.91,200
131,110.91,110.91,110.88,110.88,701
132,110.9,110.91,110.89,110.89,1664
133,110.95,110.95,110.91,110.91,400
134,110.94,110.94,110.94,110.94,377
135,110.9,110.9,110.89,110.9,1300
136,110.88,110.88,110.88,110.88,300
137,110.86,110.89,110.86,110.89,1400
138,110.86,110.86,110.84,110.86,1100
139,110.87,110.87,110.86,110.87,3112
140,110.87,110.87,110.86,110.86,1300
141,110.88,110.88,110.865,110.87,400
142,110.87,110.87,110.87,110.87,100
143,110.91,110.92,110.89,110.9,1201
145,110.93,110.93,110.91,110.91,1601
146,110.91,110.91,110.91,110.91,100
147,110.98,110.98,110.94,110.94,1000
148,111.01,111.03,110.99,111,1386
149,111.06,111.07,111.03,111.03,841
150,111.02,111.045,111.02,111.04,1000
151,111.0401,111.0401,111,111,3200
153,111.05,111.06,111.05,111.05,800
154,111.075,111.08,111.05,111.05,1600
155,111.05,111.08,111.0388,111.08,1679
156,111.0473,111.05,111.03,111.03,978
157,111.04,111.04,111.03,111.03,200
158,111.02,111.04,111.02,111.04,1400
160,111.015,111.015,111.015,111.015,200
161,111.03,111.04,111.025,111.025,1015
162,111.02,111.03,111.01,111.01,1700
163,111.03,111.04,111.03,111.035,1200
164,111.01,111.0203,111.01,111.0203,471
165,111.04,111.04,111.02,111.03,1500
166,111.035,111.04,111.025,111.025,2105
167,111.045,111.045,111.045,111.045,100
168,111.04,111.05,111.04,111.05,600
169,111.03,111.05,111.03,111.05,700
170,111.05,111.05,111.05,111.05,600
171,111.04,111.06,111.04,111.06,1574
173,111.05,111.06,111.05,111.06,1701
174,111.06,111.06,111.04,111.04,1802
175,111.06,111.06,111.04,111.05,1426
176,111.05,111.0501,111.05,111.05,1821
177,111.05,111.05,111.04,111.05,2150
178,111.045,111.05,111.04,111.04,2449
179,111,111.045,111,111.04,1400
180,111.005,111.005,111,111,900
181,111,111.005,111,111.005,1300
182,111.01,111.01,111,111,500
183,111,111.01,110.99,111.01,3785
184,110.99,110.99,110.99,110.99,400
185,110.99,111,110.99,111,300
186,111,111.01,110.99,111,700
187,110.98,110.99,110.98,110.99,1510
188,110.98,110.98,110.97,110.97,200
189,110.97,110.97,110.97,110.97,100
190,110.98,110.99,110.98,110.9812,1249
191,110.99,110.995,110.98,110.99,4170
192,111,111.01,111,111,1801
193,111.02,111.02,111.02,111.02,300
194,111.01,111.01,111.01,111.01,200
195,110.99,110.99,110.99,110.99,100
196,111,111,110.975,111,1800
197,110.99,111.01,110.99,111.01,200
198,110.96,110.9701,110.96,110.9701,595
199,110.96,110.96,110.9476,110.95,1751
200,110.94,110.945,110.94,110.945,600
201,110.96,110.96,110.945,110.95,800
202,110.9775,110.98,110.97,110.97,1026
203,110.99,110.99,110.99,110.99,127
204,110.96,110.98,110.96,110.98,801
205,110.97,110.97,110.97,110.97,600
206,110.9616,110.97,110.9616,110.97,207
207,110.95,110.96,110.95,110.96,200
208,110.95,110.97,110.95,110.95,600
209,110.95,110.95,110.94,110.94,500
210,110.95,110.95,110.94,110.94,2333
211,110.96,110.96,110.96,110.96,300
212,111.01,111.01,110.98,110.98,1000
213,111.015,111.015,111,111,500
214,111.03,111.03,111.015,111.015,400
215,111.04,111.04,111.04,111.04,100
216,111.0002,111.02,111.0002,111.02,1201
217,110.99,110.99,110.92,110.98,10465
218,110.96,110.99,110.96,110.98,2208
221,110.92,110.94,110.92,110.94,1133
222,110.94,110.94,110.91,110.92,2273
223,110.92,110.92,110.92,110.92,1000
224,110.925,110.94,110.91,110.91,3600
225,110.93,110.94,110.93,110.94,500
227,110.94,110.96,110.9325,110.94,1401
228,110.96,110.96,110.96,110.96,301
229,111.01,111.02,110.98,110.98,5000
230,111.0132,111.0132,111.0132,111.0132,216
233,111.04,111.04,111.01,111.01,300
234,111.06,111.08,111.04,111.08,400
235,111.045,111.045,111.045,111.045,100
236,111.02,111.06,111.02,111.06,1024
239,111.04,111.04,111.01,111.01,2024
240,111.0101,111.0101,111.0101,111.0101,100
241,111.03,111.04,111.03,111.04,200
242,111.01,111.02,111,111.02,3000
243,111.02,111.02,111,111,945
245,111.01,111.01,111,111.005,1505
246,111.025,111.03,111.01,111.01,2279
247,111,111,111,111,2002
248,111.04,111.04,111.005,111.01,1347
249,111.05,111.05,111.05,111.05,200
250,111.02,111.0425,111.02,111.0425,1001
251,111.02,111.02,111,111,1600
252,111.06,111.06,111.025,111.025,662
253,111.04,111.04,111.03,111.04,500
254,111.03,111.03,111.03,111.03,100
255,111.04,111.04,111.03,111.03,200
256,111.01,111.02,111,111.01,1055
257,111.015,111.02,111,111,731
258,111.01,111.01,111.01,111.01,100
259,111.005,111.02,111,111.0114,4218
260,111,111.02,111,111.005,2900
261,111.005,111.005,111.005,111.005,100
262,110.97,111.005,110.97,111.005,1300
263,110.99,110.99,110.975,110.98,1700
265,111.005,111.005,111,111,700
266,111.05,111.05,111.01,111.02,2100
267,111.05,111.06,111.04,111.04,1600
268,111.065,111.07,111.05,111.07,500
269,111.05,111.07,111.05,111.07,1444
270,111.045,111.07,111.03,111.05,6875
272,111.08,111.08,111.06,111.06,504
274,111.065,111.07,111.06,111.07,701
275,111.07,111.08,111.07,111.07,500
276,111.07,111.07,111.07,111.07,200
277,111.07,111.08,111.07,111.08,300
278,111.07,111.08,111.06,111.0634,2820
279,111.06,111.08,111.06,111.08,1450
280,111.07,111.075,111.07,111.075,200
281,111.05,111.11,111.05,111.07,20483
282,111.055,111.06,111.055,111.06,600
283,111.07,111.07,111.07,111.07,800
284,111.05,111.06,111.05,111.06,700
285,111.05,111.06,111.05,111.06,200
286,111.07,111.08,111.05,111.06,2600
287,111.08,111.08,111.08,111.08,100
288,111.07,111.07,111.07,111.07,100
289,111.04,111.08,111,111.07,5210
291,111.04,111.07,111.04,111.07,2100
292,111.07,111.07,111.05,111.05,2100
293,111.07,111.07,111.04,111.065,800
294,111.0558,111.07,111.0558,111.07,1428
295,111.075,111.09,111.0565,111.07,1783
296,111.12,111.12,111.09,111.09,800
297,111.13,111.14,111.11,111.11,624
298,111.13,111.13,111.13,111.13,100
299,111.13,111.13,111.13,111.13,200
300,111.105,111.13,111.105,111.13,1015
301,111.105,111.105,111.105,111.105,100
302,111.1,111.12,111.1,111.105,3570
303,111.08,111.09,111.08,111.09,200
304,111.09,111.0969,111.085,111.085,2100
305,111.08,111.1,111.08,111.09,921
306,111.065,111.08,111.065,111.08,837
307,111.05,111.075,111.03,111.065,5245
308,111.05,111.05,111.04,111.0485,900
309,111.0397,111.0498,111.0397,111.0498,1641
310,111.05,111.05,111.045,111.045,500
311,111.05,111.05,111.04,111.04,400
312,111.05,111.05,111.05,111.05,200
313,111.04,111.05,111.03,111.05,4200
314,111.035,111.05,111.02,111.04,3311
315,111.03,111.03,111.03,111.03,500
316,111.025,111.0299,111.02,111.0299,438
317,111.03,111.03,111.03,111.03,300
318,111.02,111.035,111.02,111.03,2245
319,111.03,111.03,111.03,111.03,300
320,111.05,111.05,111.0267,111.03,2804
321,111.06,111.06,111.03,111.04,3823
322,111.045,111.06,111.045,111.06,3860
323,111.055,111.055,111.045,111.05,2109
324,111.055,111.06,111.055,111.055,1280
325,111.055,111.06,111.055,111.055,1400
326,111.055,111.055,111.0537,111.0537,1077
327,111.04,111.06,111.04,111.05,3080
328,111.035,111.04,111.035,111.04,2537
329,111.04,111.05,111.04,111.05,1100
330,111.045,111.045,111.04,111.04,900
331,111.045,111.05,111.04,111.045,4500
332,111.04,111.045,111.04,111.04,2042
333,111,111.035,110.985,111.035,20705
334,110.995,111.005,110.995,111,5509
335,111,111.015,111,111.005,6851
336,111.01,111.01,111,111,2500
337,111.005,111.005,111.005,111.005,1100
338,111,111.0075,111,111.005,4348
339,111.005,111.01,111,111,3776
340,111,111.005,111,111.005,4772
341,110.98,111,110.98,111,1963
342,110.96,110.97,110.95,110.97,6600
343,110.955,110.96,110.955,110.96,4591
344,110.9475,110.96,110.9475,110.955,10850
345,110.97,110.97,110.945,110.95,3979
346,110.985,110.99,110.98,110.98,1500
347,111.01,111.025,110.98,110.9842,5636
348,111.04,111.04,111.01,111.01,1000
349,111.045,111.05,111.02,111.02,1056
350,111.065,111.065,111.04,111.045,3552
351,111.055,111.065,111.05,111.065,2774
352,111.055,111.06,111.055,111.055,1200
353,111.05,111.0575,111.045,111.055,4946
354,111.02,111.05,111.02,111.05,3501
355,111.015,111.02,111.015,111.02,700
356,110.9953,111.01,110.9953,111.01,3422
357,111,111.01,111,111,702
358,111.005,111.01,111,111,3979
359,111,111.01,110.99,111.01,13150
360,111.005,111.01,111,111,6503
361,111.01,111.01,111,111.005,4157
362,111,111.01,111,111.005,12803
363,110.99,111.01,110.98,111.01,4997
364,111,111.01,110.995,111,3848
365,111.005,111.01,111,111.01,9997
366,111.005,111.005,111,111.005,1524
367,111.02,111.02,111,111.005,7739
368,111.075,111.075,111.03,111.03,7403
369,111.1,111.1,111.08,111.08,5666
370,111.1,111.11,111.09,111.1,3409
371,111.1,111.105,111.095,111.1,3647
372,111.1,111.11,111.1,111.105,1399
373,111.09,111.13,111.08,111.1,13850
374,111.09,111.11,111.0875,111.11,3365
375,111.09,111.1,111.09,111.095,4801
376,111.1,111.1,111.08,111.09,2231
377,111.05,111.1,111.04,111.1,12425
378,111.055,111.06,111.04,111.05,22269
379,111.055,111.06,111.05,111.055,11323
380,111.055,111.06,111.04,111.055,23034
381,111.09,111.1,111.05,111.05,9293
382,111.105,111.11,111.1,111.1,4200
383,111.115,111.19,111.09,111.1,59440
384,111.13,111.13,111.105,111.105,40438
385,111.13,111.13,111.12,111.125,18191
386,111.12,111.13,111.12,111.125,26218
387,111.155,111.16,111.12,111.125,43734
388,111.15,111.16,111.145,111.155,80100
