PPG,PPG Industries,Materials,8,Specialty Chemicals,28678170759,1232011
a1499693460,110.73,110.73,110.73,110.73,11829
2,110.98,110.98,110.94,110.94,200
3,110.985,110.99,110.77,110.77,1300
5,110.89,110.94,110.795,110.94,800
6,110.805,110.87,110.805,110.87,600
7,110.81,110.84,110.805,110.805,1354
8,110.83,110.85,110.81,110.83,2300
9,110.9,110.92,110.82,110.82,1200
10,111.03,111.08,110.93,110.93,1600
11,111.01,111.06,110.8768,110.97,50400
12,110.9537,111.02,110.9537,111.01,755
13,111.06,111.16,111.02,111.05,11379
14,111.08,111.1,111.05,111.06,700
15,111.041,111.1,111.03,111.07,1770
16,111.085,111.15,111.06,111.1,1900
17,111.2,111.24,111.14,111.14,3450
18,111.23,111.23,111.19,111.19,2224
19,111.21,111.265,111.21,111.265,1900
20,111.26,111.26,111.22,111.22,800
21,111.2,111.22,111.18,111.22,800
22,111.1,111.21,111.1,111.17,3312
23,111.12,111.12,111.1,111.1,300
24,111.02,111.06,111.02,111.06,300
25,111.18,111.18,111.02,111.02,2800
26,111.22,111.26,111.18,111.18,3400
27,111.15,111.22,111.15,111.22,1013
28,111.08,111.08,111.07,111.07,200
29,111.24,111.24,111.09,111.09,2337
30,111.2,111.2,111.2,111.2,100
31,111.08,111.2,111.08,111.16,900
32,111.09,111.13,111.09,111.1,700
33,111.19,111.25,111.1103,111.1103,400
34,111.14,111.2,111.1,111.2,1400
35,111.21,111.21,111.165,111.19,1000
36,111.26,111.26,111.25,111.25,200
37,111.15,111.265,111.15,111.265,700
38,111.18,111.18,111.18,111.18,100
39,111.22,111.22,111.2,111.22,1100
40,111.195,111.2065,111.17,111.2065,1106
41,111.025,111.18,111.01,111.18,5468
42,111.05,111.05,111.05,111.05,200
43,111.075,111.08,111.05,111.06,400
44,111.15,111.17,111.0501,111.06,4431
45,111.255,111.29,111.19,111.19,1200
46,111.26,111.33,111.23,111.23,600
47,111.17,111.27,111.17,111.26,2500
48,111.2,111.24,111.2,111.21,800
49,111.21,111.26,111.21,111.235,400
50,111.26,111.28,111.23,111.23,1237
51,111.21,111.28,111.21,111.28,3400
52,111.21,111.21,111.21,111.21,800
53,111.11,111.24,111.05,111.24,6499
54,110.98,111.17,110.98,111.15,1700
55,111.03,111.08,111.03,111.03,2400
56,111.17,111.18,111.09,111.145,12608
57,111.09,111.17,111.09,111.17,1100
58,111.2,111.2,111.135,111.155,9145
59,111.271,111.3,111.195,111.195,15300
60,111.24,111.29,111.2243,111.28,5301
61,111.2,111.275,111.1801,111.255,4287
62,111.2125,111.25,111.2,111.21,2100
63,111.21,111.27,111.17,111.225,20990
64,111.25,111.26,111.19,111.19,2186
65,111.235,111.25,111.22,111.25,1128
66,111.23,111.25,111.23,111.25,700
67,111.27,111.27,111.24,111.26,1700
68,111.255,111.255,111.25,111.25,400
69,111.2199,111.25,111.195,111.25,3095
70,111.23,111.23,111.22,111.22,200
71,111.23,111.23,111.23,111.23,100
73,111.22,111.225,111.1601,111.225,4592
74,111.25,111.25,111.21,111.21,200
75,111.23,111.255,111.23,111.255,12600
76,111.26,111.27,111.23,111.23,3235
77,111.23,111.26,111.23,111.26,600
79,111.22,111.22,111.2,111.2,300
80,111.2175,111.225,111.2175,111.22,300
81,111.25,111.25,111.22,111.25,564
82,111.25,111.26,111.24,111.26,1200
83,111.335,111.36,111.25,111.25,4890
84,111.355,111.365,111.3252,111.3252,3290
85,111.37,111.4,111.36,111.36,1000
86,111.34,111.35,111.31,111.34,1489
87,111.27,111.27,111.27,111.27,100
88,111.24,111.31,111.19,111.26,10900
89,111.27,111.27,111.27,111.27,500
90,111.25,111.27,111.25,111.27,200
91,111.26,111.26,111.24,111.245,1400
92,111.285,111.285,111.25,111.25,1000
93,111.25,111.29,111.25,111.29,1200
94,111.25,111.25,111.215,111.25,2100
96,111.35,111.35,111.255,111.29,2300
97,111.35,111.35,111.33,111.33,750
98,111.365,111.365,111.34,111.35,4402
99,111.35,111.35,111.35,111.35,1423
100,111.28,111.34,111.28,111.33,1700
101,111.24,111.25,111.205,111.24,2352
102,111.2775,111.28,111.24,111.24,700
103,111.32,111.32,111.32,111.32,100
104,111.39,111.39,111.29,111.29,2087
105,111.39,111.39,111.36,111.36,200
106,111.34,111.39,111.33,111.39,1400
107,111.29,111.36,111.29,111.32,1400
108,111.315,111.315,111.315,111.315,100
109,111.2725,111.315,111.2725,111.315,900
110,111.2725,111.2725,111.2725,111.2725,100
111,111.3,111.32,111.19,111.265,18147
112,111.285,111.32,111.25,111.29,8332
113,111.285,111.3,111.28,111.285,9100
114,111.325,111.325,111.26,111.28,5006
115,111.305,111.335,111.28,111.305,5433
116,111.32,111.34,111.28,111.32,30252
117,111.28,111.33,111.27,111.305,5300
118,111.28,111.295,111.28,111.295,1000
119,111.3,111.3,111.2775,111.2775,200
120,111.3,111.3,111.2801,111.2801,300
121,111.3,111.31,111.28,111.3,9314
122,111.3,111.3,111.28,111.29,400
123,111.28,111.3,111.26,111.3,427
124,111.355,111.355,111.29,111.31,433
125,111.35,111.36,111.34,111.35,1100
126,111.39,111.39,111.3203,111.3203,726
127,111.3101,111.3801,111.31,111.3801,9161
128,111.36,111.37,111.35,111.37,604
129,111.3301,111.35,111.3301,111.35,300
130,111.31,111.33,111.31,111.33,800
131,111.241,111.29,111.241,111.29,400
132,111.24,111.24,111.24,111.24,100
133,111.24,111.24,111.24,111.24,100
134,111.26,111.27,111.255,111.26,600
135,111.2703,111.3,111.2703,111.3,200
136,111.31,111.35,111.31,111.32,800
137,111.26,111.3,111.22,111.3,2322
138,111.34,111.34,111.21,111.23,900
139,111.211,111.29,111.2,111.29,744
141,111.26,111.275,111.26,111.275,300
142,111.27,111.29,111.27,111.28,3623
143,111.25,111.25,111.18,111.22,2435
144,111.2191,111.2191,111.19,111.2,2182
145,111.22,111.24,111.22,111.23,1100
147,111.25,111.25,111.2,111.2,200
148,111.21,111.22,111.21,111.22,200
149,111.22,111.22,111.21,111.21,300
150,111.23,111.26,111.23,111.2599,320
151,111.22,111.24,111.22,111.22,3200
152,111.1897,111.22,111.185,111.22,2220
153,111.21,111.21,111.18,111.18,1000
154,111.19,111.2,111.18,111.2,1000
155,111.2,111.21,111.2,111.21,600
156,111.22,111.25,111.22,111.25,1100
157,111.165,111.2,111.11,111.2,14400
158,111.19,111.2,111.19,111.2,200
159,111.16,111.16,111.12,111.14,1600
160,111.14,111.15,111.14,111.15,400
161,111.15,111.1536,111.15,111.1536,1266
162,111.17,111.17,111.1401,111.1401,200
163,111.18,111.19,111.17,111.17,900
164,111.15,111.18,111.15,111.18,700
166,111.14,111.15,111.07,111.075,800
167,111.14,111.14,111.13,111.13,300
168,111.16,111.16,111.16,111.16,200
169,111.18,111.18,111.155,111.155,500
170,111.15,111.16,111.15,111.16,1212
171,111.13,111.13,111.13,111.13,100
172,111.13,111.13,111.13,111.13,300
173,111.16,111.16,111.12,111.12,800
174,111.16,111.16,111.16,111.16,100
175,111.18,111.18,111.17,111.18,2500
176,111.16,111.205,111.12,111.205,5700
177,111.16,111.19,111.13,111.19,300
178,111.15,111.17,111.13,111.13,600
179,111.19,111.19,111.14,111.14,400
180,111.19,111.2,111.19,111.19,2700
181,111.2,111.2,111.18,111.19,875
183,111.18,111.2,111.18,111.2,300
184,111.195,111.195,111.18,111.18,200
185,111.195,111.195,111.195,111.195,100
186,111.195,111.195,111.195,111.195,100
187,111.18,111.18,111.18,111.18,300
188,111.19,111.19,111.18,111.18,400
190,111.1838,111.21,111.18,111.21,1455
191,111.23,111.23,111.23,111.23,100
194,111.235,111.24,111.23,111.23,1800
195,111.1782,111.24,111.1782,111.235,2319
196,111.18,111.18,111.18,111.18,100
198,111.195,111.2,111.18,111.18,2800
199,111.19,111.2,111.18,111.195,4270
200,111.19,111.19,111.18,111.18,900
201,111.18,111.21,111.18,111.21,3125
202,111.19,111.19,111.19,111.19,1010
203,111.245,111.245,111.22,111.22,700
204,111.2501,111.265,111.245,111.245,1400
205,111.25,111.265,111.25,111.265,300
207,111.245,111.26,111.245,111.26,401
208,111.255,111.26,111.255,111.255,2203
209,111.24,111.26,111.24,111.26,1500
210,111.24,111.24,111.24,111.24,200
211,111.22,111.23,111.22,111.23,400
212,111.23,111.23,111.215,111.215,1200
213,111.25,111.25,111.24,111.24,200
214,111.21,111.25,111.21,111.245,7197
216,111.27,111.27,111.24,111.245,1840
217,111.285,111.29,111.28,111.28,1488
220,111.33,111.33,111.33,111.33,200
221,111.305,111.33,111.305,111.33,1100
222,111.295,111.31,111.29,111.31,1500
224,111.28,111.2864,111.28,111.285,436
225,111.28,111.29,111.27,111.27,1301
226,111.27,111.28,111.27,111.28,550
227,111.28,111.28,111.28,111.28,200
228,111.285,111.285,111.28,111.28,300
229,111.25,111.28,111.25,111.28,500
231,111.265,111.27,111.25,111.25,4732
232,111.29,111.29,111.275,111.275,300
233,111.26,111.29,111.26,111.29,800
234,111.251,111.251,111.251,111.251,145
235,111.25,111.25,111.25,111.25,800
236,111.24,111.262,111.24,111.25,2300
237,111.24,111.2495,111.24,111.2495,395
238,111.22,111.22,111.22,111.22,563
240,111.24,111.24,111.24,111.24,400
243,111.24,111.24,111.24,111.24,100
244,111.27,111.27,111.27,111.27,100
245,111.26,111.27,111.25,111.2501,893
246,111.29,111.29,111.26,111.27,4800
247,111.3,111.31,111.3,111.31,1200
248,111.29,111.31,111.29,111.3,2100
250,111.285,111.285,111.285,111.285,200
251,111.33,111.33,111.3,111.3,1200
252,111.34,111.35,111.33,111.33,900
253,111.345,111.345,111.34,111.34,1409
254,111.33,111.35,111.33,111.35,1402
255,111.34,111.35,111.335,111.335,18284
256,111.37,111.37,111.35,111.35,1400
257,111.355,111.378,111.33,111.378,2006
258,111.35,111.35,111.35,111.35,100
259,111.32,111.34,111.32,111.34,920
260,111.3496,111.3496,111.3496,111.3496,200
261,111.33,111.33,111.33,111.33,600
262,111.325,111.34,111.325,111.34,300
263,111.3,111.32,111.3,111.31,1600
264,111.3,111.3,111.3,111.3,100
265,111.28,111.29,111.28,111.28,300
266,111.29,111.31,111.29,111.29,2301
267,111.3,111.3,111.3,111.3,300
268,111.28,111.3,111.27,111.29,2337
269,111.29,111.29,111.29,111.29,100
270,111.2999,111.2999,111.27,111.27,400
272,111.3,111.3,111.3,111.3,100
273,111.3,111.3,111.3,111.3,100
274,111.3,111.3,111.3,111.3,300
275,111.305,111.33,111.3,111.33,1300
277,111.3275,111.3275,111.3,111.305,676
278,111.32,111.34,111.315,111.34,1057
279,111.33,111.33,111.314,111.314,800
280,111.325,111.33,111.325,111.33,500
281,111.31,111.33,111.31,111.33,1250
282,111.3,111.3,111.3,111.3,579
283,111.3,111.31,111.3,111.3,400
284,111.27,111.3,111.27,111.29,1500
287,111.27,111.27,111.27,111.27,100
288,111.28,111.29,111.27,111.28,1225
289,111.271,111.29,111.27,111.29,500
290,111.275,111.29,111.275,111.275,900
291,111.275,111.285,111.27,111.275,1447
292,111.265,111.2758,111.26,111.275,5032
293,111.27,111.27,111.265,111.269,1534
294,111.27,111.27,111.27,111.27,100
295,111.27,111.27,111.27,111.27,100
296,111.27,111.28,111.26,111.28,1094
297,111.24,111.26,111.24,111.26,1200
299,111.225,111.25,111.225,111.23,2092
301,111.2115,111.24,111.2101,111.22,1930
302,111.24,111.24,111.24,111.24,100
303,111.225,111.24,111.225,111.24,300
304,111.24,111.24,111.24,111.24,100
305,111.24,111.24,111.225,111.225,639
306,111.25,111.25,111.25,111.25,200
307,111.22,111.23,111.2,111.22,15846
308,111.24,111.24,111.24,111.24,100
309,111.24,111.24,111.24,111.24,300
311,111.25,111.25,111.25,111.25,100
312,111.25,111.25,111.24,111.24,700
313,111.25,111.25,111.25,111.25,100
314,111.25,111.25,111.25,111.25,100
315,111.2499,111.2499,111.2499,111.2499,285
316,111.2394,111.25,111.23,111.2359,510
317,111.24,111.24,111.22,111.23,1000
318,111.22,111.22,111.22,111.22,100
319,111.22,111.2288,111.22,111.2288,659
320,111.23,111.23,111.23,111.23,100
321,111.21,111.216,111.21,111.216,424
322,111.23,111.23,111.2212,111.2212,1061
324,111.21,111.23,111.21,111.23,514
325,111.18,111.19,111.18,111.19,600
326,111.17,111.17,111.17,111.17,100
327,111.18,111.18,111.1685,111.1685,750
329,111.18,111.18,111.18,111.18,100
330,111.13,111.16,111.13,111.16,1100
331,111.1,111.12,111.1,111.12,1500
332,111,111.09,110.99,111.09,2425
333,111.03,111.03,111,111.01,1570
334,111.02,111.03,111.02,111.02,1100
335,111,111.02,111,111.02,1200
336,111.02,111.02,111.01,111.01,400
337,110.95,111.01,110.95,111,700
338,110.9968,111,110.97,110.97,761
339,110.99,110.99,110.9869,110.9869,600
340,110.96,111.01,110.96,111.01,1021
341,110.98,110.98,110.98,110.98,100
342,111,111,110.98,110.98,912
343,111.02,111.02,111.01,111.01,500
344,111.01,111.03,111.01,111.03,600
345,110.99,111,110.99,111,800
346,110.98,110.99,110.98,110.99,300
347,110.89,110.96,110.89,110.96,600
348,110.91,110.92,110.905,110.92,700
349,110.94,110.94,110.92,110.92,700
350,110.9458,110.95,110.93,110.95,596
351,110.95,110.95,110.94,110.94,200
352,110.95,110.96,110.9493,110.9493,1819
353,110.94,110.94,110.94,110.94,100
354,110.94,110.95,110.94,110.94,1100
356,110.93,110.94,110.93,110.94,891
357,110.94,110.95,110.936,110.936,1206
358,110.96,110.96,110.95,110.95,500
359,110.97,110.97,110.9503,110.9503,330
360,110.98,110.99,110.965,110.965,2400
361,110.98,110.99,110.96,110.98,3372
362,110.98,110.98,110.98,110.98,306
363,111.01,111.01,110.97,110.98,1400
364,111.02,111.02,111.01,111.01,400
365,111.025,111.025,111.025,111.025,100
366,111.05,111.05,111.05,111.05,100
367,111.05,111.05,111.05,111.05,100
368,111.04,111.04,111.02,111.04,1995
369,111.05,111.05,111.04,111.05,1092
370,111.08,111.08,111.05,111.05,2080
371,111.11,111.11,111.11,111.11,100
372,111.1,111.1,111.0919,111.1,1446
373,111.09,111.09,111.09,111.09,980
374,111.07,111.09,111.05,111.08,11154
375,111.09,111.09,111.06,111.065,5200
376,111.1,111.12,111.08,111.08,30513
377,111.08,111.095,111.07,111.095,2708
378,111.08,111.08,111.05,111.08,400
379,111.05,111.08,111.05,111.08,1010
380,111.04,111.06,111.04,111.05,1389
381,111.03,111.03,111.02,111.02,3078
382,111.0485,111.0485,111.03,111.03,300
383,111.02,111.04,111.02,111.04,1440
384,111.01,111.02,111,111.01,3013
385,110.96,111.01,110.96,111,4258
386,110.96,110.96,110.95,110.95,3367
387,110.99,111.01,110.93,110.95,8249
388,110.97,111,110.97,110.99,3980
389,110.97,110.98,110.91,110.96,8834
