EOG,EOG Resources,Energy,3,Oil & Gas Exploration & Production,50455235401,3405736
a1497965400,86.72,86.79,86.68,86.79,37797
1,86.56,86.75,86.56,86.72,10213
2,86.63,86.73,86.41,86.57,17654
3,86.68,86.68,86.52,86.67,10440
4,86.6,86.85,86.6,86.71,12579
5,86.62,86.68,86.57,86.6,5743
6,86.74,86.74,86.63,86.65,38291
7,86.69,86.77,86.656,86.69,11494
8,86.9136,86.98,86.685,86.72,8942
9,87,87.05,86.9275,86.94,4637
10,87.13,87.18,87.02,87.02,3893
11,86.965,87.2,86.965,87.13,9722
12,87.05,87.05,86.94,86.94,8096
13,86.95,87,86.9,86.99,8458
14,87.03,87.09,86.9752,86.98,6403
15,87.08,87.15,87.02,87.02,5201
16,86.97,87.08,86.97,87.07,8620
17,86.81,87,86.7952,86.98,6300
18,86.7,86.83,86.62,86.83,15006
19,86.69,86.74,86.65,86.68,41195
20,86.57,86.67,86.46,86.66,27710
21,86.4275,86.58,86.4275,86.54,12810
22,86.25,86.43,86.24,86.39,19140
23,86.44,86.475,86.25,86.25,15293
24,86.29,86.44,86.2,86.44,9391
25,86.32,86.44,86.27,86.27,12550
26,86.03,86.37,86.03,86.32,42950
27,85.945,86.0966,85.891,86.01,16315
28,86.035,86.0443,85.88,85.96,23902
29,86.03,86.15,86,86,4700
30,86.07,86.11,85.9975,86.055,21315
31,86.22,86.23,86.065,86.0846,15130
32,86.28,86.35,86.22,86.23,20047
33,86.39,86.39,86.2965,86.325,9018
34,86.43,86.47,86.38,86.43,7099
35,86.4,86.44,86.37,86.41,4482
36,86.31,86.36,86.26,86.36,31561
37,86.33,86.38,86.27,86.34,6982
38,86.375,86.39,86.275,86.31,6574
39,86.27,86.41,86.27,86.34,15936
40,86.355,86.4,86.27,86.27,11808
41,86.345,86.38,86.29,86.36,11700
42,86.33,86.35,86.28,86.34,14450
43,86.29,86.34,86.25,86.3302,8942
44,86.33,86.355,86.23,86.3,9701
45,86.335,86.4,86.26,86.36,11134
46,86.26,86.31,86.23,86.31,7200
47,86.185,86.29,86.18,86.26,20635
48,86.235,86.26,86.19,86.19,7707
49,86.329,86.329,86.23,86.24,3331
50,86.33,86.33,86.26,86.32,6949
51,86.33,86.33,86.25,86.315,5480
52,86.265,86.33,86.265,86.31,7073
53,86.19,86.25,86.19,86.25,5900
54,86.1513,86.205,86.15,86.185,5000
55,86.19,86.22,86.15,86.17,11174
56,86.18,86.24,86.14,86.209,5575
57,86.11,86.2,86.09,86.18,10588
58,86.175,86.21,86.13,86.14,17121
59,86.17,86.22,86.17,86.19,8619
60,86.08,86.17,86.08,86.17,3832
61,86.16,86.165,86.05,86.08,7392
62,86.19,86.19,86.14,86.151,6925
63,86.19,86.19,86.12,86.16,4400
64,86.21,86.24,86.15,86.195,9338
65,86.225,86.24,86.17,86.21,6600
66,86.34,86.35,86.235,86.24,11577
67,86.35,86.38,86.32,86.34,9962
68,86.27,86.365,86.24,86.36,4262
69,86.26,86.285,86.25,86.26,11836
70,86.23,86.28,86.23,86.255,20069
71,86.26,86.27,86.21,86.23,6264
72,86.26,86.31,86.25,86.28,6900
73,86.2,86.27,86.2,86.26,3700
74,86.15,86.2,86.15,86.2,1100
75,86.1,86.17,86.06,86.15,3770
76,86.09,86.1,86.05,86.06,4599
77,86.1043,86.12,86.0301,86.095,4400
78,86.1214,86.1342,86.11,86.11,2508
79,86.18,86.18,86.13,86.13,2600
80,86.18,86.21,86.14,86.19,2945
81,86.21,86.24,86.18,86.2,4245
82,86.24,86.27,86.18,86.2,8406
83,86.31,86.31,86.24,86.26,4274
84,86.29,86.335,86.24,86.31,12900
85,86.32,86.32,86.24,86.3,33700
86,86.35,86.39,86.29,86.31,45394
87,86.35,86.42,86.35,86.36,32315
88,86.34,86.365,86.29,86.365,5991
89,86.345,86.36,86.31,86.31,3750
90,86.32,86.38,86.32,86.32,8147
91,86.21,86.32,86.19,86.32,5286
92,86.24,86.28,86.17,86.195,5507
93,86.28,86.28,86.23,86.25,2597
94,86.28,86.37,86.28,86.28,5896
95,86.32,86.32,86.26,86.3,5184
96,86.37,86.37,86.28,86.34,3609
97,86.37,86.43,86.33,86.35,4013
98,86.37,86.38,86.33,86.36,2200
99,86.45,86.47,86.39,86.39,4955
100,86.38,86.435,86.38,86.43,23137
101,86.49,86.52,86.4,86.4,3212
102,86.52,86.62,86.48,86.52,6694
103,86.53,86.53,86.48,86.52,4003
104,86.57,86.57,86.44,86.49,3908
105,86.55,86.6,86.54,86.6,3787
106,86.54,86.57,86.54,86.54,23395
107,86.57,86.59,86.55,86.56,33200
108,86.59,86.64,86.58,86.59,2609
109,86.53,86.65,86.51,86.6,26597
110,86.5242,86.54,86.52,86.52,38500
111,86.559,86.63,86.53,86.55,13255
112,86.575,86.58,86.5,86.5,4805
113,86.555,86.6,86.53,86.569,16995
114,86.57,86.59,86.5406,86.57,66427
115,86.65,86.71,86.58,86.58,10448
116,86.67,86.7,86.66,86.683,2590
117,86.74,86.75,86.64,86.69,6471
118,86.8,86.8,86.65,86.76,30025
119,86.78,86.82,86.73,86.77,1800
120,86.87,86.89,86.8,86.8,2000
121,86.91,86.99,86.86,86.86,2653
122,86.88,86.97,86.86,86.93,1798
123,86.8,86.95,86.8,86.91,1800
124,86.85,86.88,86.82,86.82,2204
125,86.845,86.86,86.8,86.86,3574
126,86.94,86.94,86.86,86.86,3270
127,86.9,86.94,86.82,86.94,7895
128,87.0187,87.03,86.89,86.91,7282
129,87.08,87.08,86.98,87,3450
130,87.06,87.09,87,87.05,5895
131,87.09,87.09,87.03,87.09,4911
132,87.25,87.25,87.09,87.09,5787
133,87.22,87.29,87.2,87.25,4743
134,87.2215,87.25,87.21,87.24,1300
135,87.231,87.27,87.2,87.225,2435
136,87.07,87.255,87.07,87.255,4277
137,87.1,87.11,87.05,87.08,1800
138,87.19,87.19,87.11,87.11,1100
139,87.0228,87.1644,87.02,87.15,2359
140,87.005,87.06,87,87.05,1900
141,87.13,87.13,87.03,87.03,4131
142,87.1,87.148,87.09,87.11,2940
143,87.01,87.12,87.01,87.08,1700
144,86.985,87.01,86.985,87.01,1800
145,87,87.01,86.95,86.95,1850
146,87.09,87.09,87.01,87.02,2374
147,87.15,87.15,87.04,87.05,6094
148,87.18,87.21,87.1,87.11,8804
149,87.17,87.17,87.13,87.16,3350
150,87.08,87.155,87.08,87.15,1400
151,87.17,87.18,87.06,87.06,3506
152,87.14,87.21,87.14,87.16,4600
153,87.19,87.25,87.15,87.15,3500
154,87.235,87.235,87.21,87.22,1878
155,87.19,87.28,87.16,87.24,11781
156,87.19,87.2,87.17,87.2,4285
157,87.36,87.37,87.19,87.19,9356
158,87.42,87.42,87.35,87.37,3200
159,87.47,87.49,87.36,87.4,2757
160,87.43,87.5,87.42,87.5,4236
161,87.44,87.45,87.43,87.43,700
162,87.38,87.4607,87.38,87.46,2293
163,87.39,87.4,87.35,87.39,2900
164,87.3695,87.41,87.3695,87.3945,1167
165,87.32,87.3298,87.29,87.32,2043
166,87.385,87.4,87.33,87.33,900
167,87.35,87.37,87.28,87.37,6433
168,87.29,87.36,87.25,87.34,4981
169,87.34,87.34,87.25,87.26,2900
170,87.32,87.34,87.29,87.31,3100
171,87.4,87.4,87.35,87.36,2242
172,87.4,87.44,87.4,87.42,1396
173,87.44,87.45,87.39,87.39,1298
174,87.391,87.45,87.39,87.45,1600
175,87.39,87.4,87.33,87.37,2700
176,87.34,87.39,87.31,87.39,2774
177,87.33,87.36,87.28,87.35,4007
178,87.2,87.3317,87.2,87.3317,3400
179,87.1,87.21,87.1,87.16,2275
180,87.11,87.141,87.09,87.11,2891
181,87.09,87.13,87.05,87.08,2183
182,87.11,87.11,87.061,87.11,2200
183,87.05,87.11,87.05,87.1,700
184,87.08,87.1,87.03,87.04,1509
185,87.05,87.05,87.03,87.04,1100
186,87.05,87.08,87.01,87.06,3093
187,87.12,87.44,87.01,87.01,295672
188,87.08,87.13,87.08,87.1,1000
189,87.12,87.16,87.08,87.1,2907
190,87.1,87.16,87.09,87.121,6560
191,87.18,87.18,87.1,87.1,7101
192,87.11,87.18,87.11,87.16,1797
193,87.18,87.23,87.11,87.14,8850
194,87.22,87.22,87.17,87.18,3996
195,87.26,87.26,87.21,87.21,3981
196,87.31,87.31,87.23,87.26,6378
197,87.3,87.33,87.3,87.31,2404
198,87.29,87.29,87.26,87.27,2200
199,87.18,87.3,87.18,87.28,1900
200,87.18,87.21,87.18,87.2,900
201,87.23,87.26,87.22,87.23,4079
202,87.21,87.25,87.2,87.2298,2876
203,87.24,87.29,87.23,87.24,1800
204,87.29,87.29,87.25,87.25,914
205,87.32,87.32,87.26,87.26,1600
206,87.38,87.39,87.31,87.34,6862
207,87.39,87.43,87.38,87.4,6330
208,87.48,87.49,87.41,87.42,3074
209,87.45,87.47,87.41,87.47,3000
210,87.49,87.49,87.44,87.44,2464
211,87.47,87.48,87.41,87.48,3500
212,87.48,87.54,87.48,87.5,3694
213,87.52,87.53,87.46,87.519,3202
214,87.64,87.67,87.54,87.55,5080
215,87.71,87.78,87.64,87.64,21161
216,87.7,87.7,87.62,87.69,4550
217,87.74,87.78,87.69,87.7,4153
218,87.76,87.7879,87.7,87.7,2329
219,87.81,87.84,87.76,87.76,2700
220,87.82,87.825,87.8,87.825,800
221,87.74,87.79,87.7,87.79,2759
222,87.78,87.8,87.77,87.77,2070
223,87.81,87.82,87.75,87.75,2220
224,87.79,87.84,87.79,87.82,2000
225,87.78,87.8,87.76,87.77,4500
226,87.79,87.8,87.77,87.78,1500
227,87.735,87.78,87.69,87.78,27650
228,87.72,87.74,87.68,87.735,3600
229,87.7,87.74,87.7,87.74,500
230,87.7407,87.75,87.7,87.7,3500
231,87.72,87.77,87.671,87.761,5433
232,87.71,87.71,87.6927,87.71,300
233,87.71,87.715,87.7,87.7,997
234,87.73,87.7895,87.71,87.71,2980
235,87.74,87.76,87.71,87.76,500
236,87.665,87.73,87.665,87.73,1600
237,87.66,87.66,87.6,87.65,2000
238,87.65,87.65,87.62,87.63,800
239,87.644,87.66,87.64,87.64,1530
240,87.67,87.687,87.65,87.67,2279
241,87.74,87.77,87.66,87.66,2909
242,87.73,87.77,87.73,87.76,2050
243,87.74,87.74,87.71,87.72,1821
244,87.68,87.7478,87.64,87.7478,5088
245,87.6,87.65,87.6,87.64,4300
246,87.64,87.64,87.59,87.6,2850
247,87.71,87.71,87.6,87.6,3853
248,87.72,87.72,87.68,87.71,4200
249,87.7697,87.7697,87.68,87.71,6050
250,87.78,87.78,87.74,87.7697,4900
251,87.78,87.81,87.76,87.78,4811
252,87.79,87.82,87.79,87.79,1225
253,87.84,87.9,87.83,87.83,6205
254,87.85,87.88,87.82,87.82,1900
255,87.91,87.945,87.87,87.87,1500
256,87.9102,87.97,87.89,87.92,3980
257,87.93,87.95,87.9,87.91,2200
258,87.92,87.94,87.92,87.92,514
259,87.95,87.977,87.92,87.92,4499
260,87.86,87.93,87.86,87.93,1000
261,87.84,87.87,87.82,87.87,4130
262,87.86,87.86,87.84,87.84,600
263,87.8,87.87,87.8,87.84,5050
264,87.81,87.83,87.76,87.79,10138
265,87.81,87.83,87.781,87.83,4900
266,87.82,87.82,87.75,87.79,3500
267,87.85,87.8848,87.82,87.84,2614
268,87.85,87.885,87.84,87.86,5650
269,87.84,87.91,87.82,87.89,11646
270,87.86,87.92,87.82,87.86,10490
271,87.91,87.95,87.885,87.9,6529
272,87.95,87.96,87.92,87.9242,3908
273,88.04,88.05,87.97,87.97,2952
274,88.01,88.03,87.99,88.02,6551
275,87.99,88.029,87.99,88,2003
276,87.96,88.005,87.95,87.99,2900
277,87.95,87.98,87.94,87.94,4249
278,87.98,87.99,87.94,87.955,3419
279,87.98,88.03,87.97,87.99,6285
280,87.97,87.97,87.93,87.97,4778
281,87.93,87.98,87.93,87.97,8475
282,88.03,88.03,87.93,87.93,11216
283,87.94,88.03,87.94,88.025,3850
284,87.92,87.94,87.9,87.94,4200
285,87.94,87.97,87.91,87.92,7009
286,87.96,87.97,87.9,87.93,6974
287,88.02,88.04,87.93,87.96,4290
288,88.11,88.12,87.97,88.05,8193
289,88.09,88.14,88.07,88.11,4932
290,88.15,88.21,88.12,88.12,6319
291,88.1,88.1964,88.08,88.16,7450
292,88.1301,88.14,88.07,88.1244,5121
293,88.15,88.18,88.11,88.18,4791
294,88.165,88.29,88.165,88.17,7798
295,88.2,88.23,88.15,88.16,4164
296,88.13,88.21,88.11,88.21,9700
297,88.09,88.15,88.09,88.14,4489
298,88.15,88.15,88.08,88.11,3600
299,88.07,88.17,88.07,88.17,2576
300,88.175,88.175,88.07,88.09,5523
301,88.1167,88.1472,88.11,88.13,2925
302,88.1,88.14,88.07,88.1,4488
303,88.1,88.15,88.1,88.15,2400
304,88.04,88.08,88.04,88.05,2600
305,88.13,88.13,88.04,88.04,2920
306,88.02,88.11,88.02,88.1,3954
307,88.01,88.0343,87.98,88.03,4218
308,87.91,88,87.9,88,4294
309,87.88,87.94,87.85,87.93,3971
310,87.88,87.93,87.86,87.86,2754
311,87.88,87.89,87.84,87.89,5473
312,87.89,87.89,87.87,87.88,2123
313,87.839,87.89,87.793,87.881,7392
314,87.915,87.915,87.83,87.83,4920
315,87.97,87.97,87.92,87.92,4241
316,87.967,87.99,87.91,87.97,4045
317,88.04,88.06,87.95,87.97,8799
318,88.03,88.03,87.98,88.02,3050
319,87.94,88.06,87.94,88.03,2097
320,87.905,87.94,87.89,87.94,8510
321,87.94,87.96,87.92,87.92,6900
322,87.88,87.94,87.88,87.94,2561
323,87.875,87.9,87.86,87.89,3452
324,87.81,87.86,87.8,87.86,4300
325,87.82,87.88,87.79,87.8299,7569
326,87.88,87.9,87.82,87.82,3943
327,87.86,87.97,87.86,87.89,6326
328,87.87,87.88,87.85,87.86,1740
329,87.93,87.95,87.88,87.88,3800
330,87.84,87.91,87.82,87.91,3905
331,87.88,87.89,87.83,87.83,4530
332,87.98,87.99,87.855,87.86,8168
333,87.88,87.98,87.88,87.98,2973
334,87.92,87.96,87.88,87.88,6281
335,87.87,87.91,87.85,87.91,3125
336,87.91,87.91,87.875,87.88,4400
337,88.03,88.03,87.8807,87.905,9506
338,88.03,88.09,88.01,88.03,7312
339,87.97,88.05,87.94,88.05,2900
340,87.99,88,87.955,87.97,5531
341,87.92,87.99,87.91,87.99,3060
342,87.935,88.02,87.92,87.92,9131
343,87.91,87.94,87.91,87.935,2535
344,87.87,87.93,87.86,87.88,11468
345,87.93,87.93,87.87,87.87,4831
346,88,88,87.91,87.94,8751
347,88,88.03,87.96,88.02,7361
348,87.99,88.02,87.975,88,5400
349,88,88.03,87.94,87.98,6706
350,87.98,88.02,87.98,88,6912
351,87.97,88.01,87.96,87.99,6211
352,88.01,88.01,87.96,87.96,4947
353,87.97,88.01,87.92,88.01,6222
354,88.01,88.01,87.97,87.97,5600
355,87.99,88.02,87.975,88.01,6456
356,87.915,87.999,87.915,87.99,8952
357,87.92,87.94,87.89,87.92,7599
358,88,88.02,87.94,87.94,6011
359,88.01,88.02,87.97,87.99,9649
360,87.95,88.025,87.95,88.02,9038
361,87.97,88.01,87.95,87.961,11902
362,87.99,88,87.936,87.97,10257
363,87.98,88.055,87.98,88,9036
364,87.9698,88,87.95,87.96,6958
365,87.96,87.99,87.92,87.95,8020
366,87.965,88,87.94,87.96,10500
367,87.99,88,87.96,87.96,7682
368,88.01,88.05,88,88,7600
369,88,88.0201,87.97,88.01,18003
370,87.975,88,87.96,88,17511
371,87.92,87.98,87.91,87.98,12913
372,87.92,87.93,87.91,87.92,10203
373,87.88,87.92,87.88,87.92,14272
374,87.9,87.9,87.855,87.88,12083
375,87.86,87.91,87.84,87.9,13754
376,87.83,87.885,87.83,87.86,23323
377,87.87,87.89,87.82,87.825,14533
378,87.84,87.88,87.82,87.87,8202
379,87.83,87.85,87.82,87.84,9387
380,87.84,87.87,87.83,87.84,14754
381,87.92,87.93,87.85,87.86,9142
382,87.9925,87.995,87.93,87.93,22076
383,88,88.01,87.981,87.9938,14406
384,87.95,88,87.94,88,7914
385,87.9,87.96,87.9,87.95,9300
386,87.98,87.98,87.9001,87.9001,18795
387,87.92,87.979,87.92,87.979,14075
388,87.91,87.93,87.9,87.92,13761
389,87.89,87.93,87.87,87.92,24921
390,87.86,87.915,87.84,87.9,59758
