PPG,PPG Industries,Materials,8,Specialty Chemicals,28425116124,1224056
a1497879120,111.51,111.51,111.51,111.51,1467
1,111.445,111.57,111.25,111.54,37351
2,111.405,111.455,111.32,111.34,7518
3,111.26,111.33,111.26,111.33,2500
4,111.265,111.275,111.18,111.25,1686
5,111.3,111.305,111.16,111.2,3700
6,111.25,111.25,111.2,111.21,926
7,111.285,111.32,111.21,111.21,27683
8,111.19,111.27,111.19,111.26,1500
9,111.25,111.25,111.11,111.12,3750
10,111.255,111.255,111.23,111.24,400
11,111.33,111.33,111.22,111.255,18630
12,111.2401,111.37,111.2401,111.315,4380
13,111.21,111.24,111.21,111.24,650
14,111.2,111.2564,111.18,111.21,4501
15,111.08,111.18,111.08,111.18,700
16,111.3,111.3,111.08,111.08,2295
17,111.27,111.315,111.23,111.28,38363
18,111.29,111.29,111.1,111.16,8497
19,111.13,111.15,111.11,111.15,700
20,111.11,111.15,111.09,111.1,7208
21,111.11,111.11,111.1,111.1,500
22,111.12,111.12,111.12,111.12,400
23,111.11,111.12,111.11,111.11,800
24,111.11,111.18,111.1,111.14,1500
25,111.13,111.16,111.1,111.1,2700
26,111.17,111.19,111.135,111.135,1220
27,111.1812,111.21,111.14,111.14,1500
28,111.14,111.2,111.14,111.17,1700
29,111.222,111.3323,111.16,111.16,2675
30,111.12,111.22,111.11,111.22,4300
31,111.25,111.25,111.1,111.1,1600
32,111.26,111.31,111.25,111.25,1100
33,111.27,111.31,111.26,111.31,600
34,111.265,111.285,111.26,111.28,3039
35,111.27,111.285,111.25,111.25,500
36,111.27,111.31,111.26,111.27,2294
37,111.24,111.26,111.16,111.26,5100
38,111.25,111.26,111.21,111.26,400
39,111.306,111.32,111.25,111.25,1071
40,111.2,111.35,111.2,111.31,5239
41,111.27,111.3,111.19,111.19,700
42,111.28,111.3,111.28,111.3,500
43,111.34,111.34,111.3,111.3,2046
44,111.28,111.35,111.28,111.33,6189
45,111.25,111.29,111.21,111.24,2500
46,111.25,111.28,111.23,111.23,700
47,111.297,111.32,111.28,111.28,780
48,111.335,111.335,111.29,111.325,7300
49,111.3,111.35,111.28,111.3375,3300
50,111.35,111.36,111.25,111.29,5339
51,111.3,111.36,111.3,111.355,2554
52,111.27,111.28,111.255,111.28,11200
53,111.28,111.33,111.27,111.27,5033
54,111.3,111.325,111.27,111.325,2001
55,111.22,111.305,111.22,111.2856,3512
56,111.22,111.24,111.16,111.22,1500
57,111.19,111.23,111.15,111.2,3266
58,111.25,111.25,111.17,111.17,500
59,111.21,111.25,111.21,111.21,2711
60,111.3102,111.3102,111.25,111.25,4500
61,111.26,111.305,111.25,111.28,1390
62,111.28,111.28,111.23,111.23,800
63,111.26,111.29,111.23,111.29,1577
64,111.25,111.26,111.2,111.26,1700
65,111.24,111.26,111.24,111.255,700
66,111.22,111.265,111.22,111.25,1000
67,111.22,111.225,111.2,111.2,1800
68,111.23,111.24,111.22,111.235,21400
69,111.22,111.24,111.15,111.22,4005
70,111.21,111.24,111.2,111.22,2926
71,111.2,111.22,111.2,111.21,500
72,111.22,111.25,111.22,111.24,1400
73,111.2701,111.28,111.23,111.23,3735
74,111.15,111.28,111.14,111.28,2000
75,111.16,111.18,111.13,111.17,2200
76,111.11,111.16,111.11,111.155,2100
77,111.08,111.11,111.08,111.1,4312
78,111.17,111.17,111.08,111.08,2000
79,111.16,111.23,111.16,111.195,700
80,111.16,111.16,111.13,111.13,819
81,111.145,111.145,111.11,111.11,300
82,111.1,111.14,111.08,111.135,2003
83,111.12,111.12,111.08,111.1,2900
84,111.17,111.17,111.1,111.1,1400
85,111.18,111.24,111.13,111.14,2323
86,111.17,111.22,111.15,111.2,6830
87,111.15,111.19,111.15,111.17,700
88,111.15,111.19,111.15,111.15,800
89,111.17,111.17,111.12,111.12,600
90,111.18,111.19,111.13,111.18,1100
91,111.14,111.2,111.13,111.13,800
92,111.12,111.14,111.1,111.14,1800
93,111.07,111.1,111.07,111.09,1177
94,111.02,111.07,111.02,111.06,700
95,111.1,111.1,111.03,111.03,1200
96,111.1,111.13,111.09,111.09,741
97,111.2,111.2,111.16,111.17,2100
98,111.17,111.2,111.15,111.2,1200
99,111.15,111.19,111.15,111.17,700
100,111.2,111.2,111.15,111.15,400
101,111.14,111.215,111.14,111.21,3015
102,111.12,111.16,111.12,111.14,800
103,111.09,111.14,111.07,111.13,2599
104,111.08,111.1,111.05,111.05,300
105,111.07,111.09,111.05,111.09,1500
106,111.08,111.09,111.05,111.06,2558
107,111.1,111.14,111.08,111.08,1300
108,111.12,111.15,111.1,111.1,800
109,111.1,111.2,111.1,111.15,1253
110,111.11,111.11,111.09,111.09,400
111,111.11,111.19,111.11,111.16,3705
112,111.16,111.17,111.12,111.12,600
113,111.13,111.19,111.13,111.14,600
114,111.08,111.13,111.08,111.12,4000
115,111.08,111.09,111.07,111.08,10100
116,111.07,111.1,111.06,111.08,6727
117,111.05,111.075,111.05,111.06,1302
118,111.01,111.05,111.01,111.03,500
119,111.07,111.07,111.01,111.03,1700
120,111.06,111.09,111.0501,111.08,1500
121,111.04,111.04,111.03,111.03,300
122,111.1,111.1,111.03,111.03,700
123,111.09,111.095,111.06,111.06,829
124,111.09,111.1,111.07,111.07,2800
125,111.09,111.12,111.09,111.09,400
126,111.13,111.15,111.11,111.11,300
127,111.11,111.11,111.11,111.11,600
128,111.15,111.15,111.08,111.09,800
129,111.16,111.16,111.11,111.11,500
130,111.102,111.15,111.08,111.11,4940
131,111.12,111.12,111.08,111.08,1406
132,111.14,111.14,111.11,111.14,600
133,111.1,111.15,111.1,111.14,1002
134,111.11,111.11,111.1,111.11,400
135,111.1,111.13,111.1,111.1,500
136,111.13,111.13,111.1,111.1,2500
137,111.1,111.13,111.1,111.11,900
138,111.1299,111.13,111.1,111.1,300
139,111.18,111.18,111.1,111.1,2200
140,111.17,111.18,111.165,111.17,900
141,111.14,111.17,111.14,111.17,1038
142,111.13,111.14,111.13,111.14,300
143,111.13,111.13,111.13,111.13,200
144,111.13,111.13,111.12,111.13,600
145,111.18,111.22,111.12,111.14,500
146,111.18,111.21,111.18,111.21,800
147,111.2,111.2,111.18,111.18,500
148,111.15,111.18,111.15,111.18,1000
149,111.13,111.18,111.13,111.15,3232
150,111.15,111.16,111.14,111.14,1998
151,111.18,111.18,111.16,111.17,600
152,111.16,111.18,111.16,111.17,400
153,111.13,111.16,111.13,111.16,1500
154,111.13,111.15,111.13,111.13,700
155,111.13,111.14,111.13,111.14,300
156,111.12,111.14,111.12,111.13,800
157,111.15,111.15,111.12,111.1398,900
158,111.1662,111.1662,111.12,111.12,600
159,111.12,111.12,111.12,111.12,300
160,111.18,111.18,111.12,111.12,1290
161,111.17,111.18,111.13,111.13,400
162,111.11,111.14,111.11,111.14,900
163,111.133,111.133,111.1,111.11,549
164,111.1,111.1,111.1,111.1,200
165,111.13,111.13,111.1,111.1,800
166,111.14,111.15,111.12,111.13,805
167,111.12,111.14,111.11,111.111,900
168,111.13,111.14,111.13,111.14,200
169,111.13,111.17,111.13,111.16,400
170,111.13,111.14,111.13,111.13,300
171,111.15,111.15,111.12,111.12,300
172,111.12,111.16,111.12,111.13,300
173,111.12,111.12,111.12,111.12,300
174,111.15,111.16,111.13,111.13,1600
175,111.16,111.165,111.15,111.165,850
176,111.15,111.165,111.15,111.165,557
177,111.15,111.16,111.14,111.14,1100
178,111.15,111.15,111.13,111.13,401
179,111.13,111.1553,111.13,111.15,2800
180,111.135,111.135,111.12,111.12,200
181,111.12,111.12,111.11,111.11,900
182,111.12,111.12,111.1,111.12,3146
183,111.14,111.14,111.09,111.09,300
184,111.13,111.13,111.1,111.1,500
185,111.11,111.14,111.1,111.14,780
186,111.12,111.15,111.12,111.12,500
187,111.15,111.15,111.13,111.13,2397
188,111.14,111.16,111.13,111.16,567
189,111.11,111.15,111.11,111.15,1423
190,111.11,111.15,111.11,111.11,400
191,111.16,111.16,111.11,111.11,1000
192,111.1321,111.14,111.12,111.14,430
193,111.13,111.16,111.12,111.16,400
194,111.14,111.16,111.13,111.16,600
195,111.16,111.18,111.14,111.1678,600
196,111.14,111.16,111.13,111.15,1200
197,111.15,111.15,111.14,111.15,300
198,111.12,111.145,111.12,111.14,600
199,111.1095,111.12,111.1095,111.11,639
200,111.08,111.08,111.07,111.07,300
201,111.08,111.11,111.08,111.08,900
202,111.08,111.1061,111.08,111.1061,601
203,111.09,111.12,111.08,111.08,700
204,111.1599,111.1599,111.1,111.12,1207
205,111.145,111.1526,111.1,111.1,1006
206,111.12,111.14,111.12,111.12,500
207,111.12,111.15,111.12,111.15,400
208,111.1,111.13,111.1,111.13,600
209,111.1,111.13,111.1,111.13,605
210,111.11,111.15,111.1,111.12,400
211,111.12,111.13,111.1111,111.13,732
212,111.145,111.15,111.12,111.12,600
213,111.13,111.18,111.13,111.18,400
214,111.13,111.155,111.13,111.13,400
215,111.14,111.17,111.14,111.17,900
216,111.14,111.16,111.14,111.14,400
217,111.14,111.15,111.14,111.15,300
218,111.17,111.17,111.14,111.14,300
219,111.14,111.155,111.14,111.14,500
220,111.15,111.16,111.14,111.14,1160
221,111.17,111.17,111.14,111.14,1540
222,111.14,111.155,111.14,111.155,400
223,111.14,111.15,111.14,111.14,749
224,111.15,111.15,111.14,111.14,2344
225,111.16,111.16,111.15,111.16,1000
226,111.16,111.175,111.16,111.16,1045
227,111.14,111.165,111.14,111.165,600
228,111.145,111.145,111.13,111.14,600
229,111.14,111.15,111.13,111.13,1600
230,111.14,111.145,111.13,111.1432,7700
231,111.145,111.15,111.13,111.14,4049
232,111.15,111.16,111.14,111.145,2300
233,111.14,111.17,111.14,111.17,703
234,111.14,111.17,111.13,111.13,500
235,111.12,111.16,111.12,111.16,2517
236,111.12,111.13,111.12,111.13,200
237,111.12,111.12,111.12,111.12,100
238,111.12,111.13,111.11,111.11,500
239,111.18,111.19,111.16,111.16,1200
240,111.17,111.19,111.17,111.19,700
241,111.17,111.19,111.17,111.19,1400
242,111.16,111.19,111.16,111.185,1200
243,111.16,111.16,111.16,111.16,200
244,111.13,111.16,111.13,111.16,1900
245,111.2,111.2,111.14,111.145,1700
246,111.13,111.15,111.11,111.15,1950
247,111.11,111.12,111.1,111.11,1000
248,111.1,111.1,111.1,111.1,200
249,111.13,111.14,111.1,111.1,5896
250,111.17,111.17,111.12,111.12,900
251,111.15,111.17,111.15,111.17,800
252,111.11,111.15,111.11,111.15,1950
253,111.11,111.12,111.11,111.1122,450
254,111.12,111.14,111.11,111.11,500
255,111.1,111.12,111.1,111.11,4500
256,111.11,111.11,111.1,111.1,900
257,111.11,111.12,111.1,111.1,671
258,111.1,111.1,111.1,111.1,600
259,111.1,111.15,111.1,111.11,1800
260,111.11,111.11,111.1,111.1,1900
261,111.13,111.18,111.13,111.15,800
262,111.125,111.16,111.11,111.16,2714
263,111.15,111.15,111.11,111.11,700
264,111.12,111.12,111.12,111.12,300
265,111.16,111.17,111.13,111.14,500
266,111.125,111.155,111.125,111.14,2107
267,111.12,111.12,111.12,111.12,200
268,111.12,111.15,111.12,111.135,1500
269,111.12,111.14,111.12,111.13,1200
270,111.12,111.13,111.1,111.11,2746
271,111.13,111.13,111.1,111.1,300
272,111.11,111.11,111.11,111.11,900
273,111.1,111.1,111.1,111.1,500
274,111.14,111.14,111.09,111.11,6068
275,111.11,111.16,111.11,111.14,1400
276,111.13,111.16,111.11,111.11,1500
277,111.16,111.16,111.12,111.12,600
278,111.11,111.125,111.11,111.12,713
279,111.11,111.14,111.11,111.14,400
280,111.11,111.13,111.11,111.13,400
281,111.13,111.15,111.11,111.14,1631
282,111.17,111.17,111.13,111.13,300
283,111.13,111.17,111.13,111.17,600
284,111.14,111.15,111.12,111.13,1729
285,111.13,111.16,111.13,111.15,800
286,111.13,111.15,111.13,111.14,400
287,111.17,111.1702,111.13,111.1627,1497
288,111.13,111.16,111.13,111.14,801
289,111.135,111.145,111.13,111.145,5649
290,111.135,111.1369,111.13,111.135,1854
291,111.1,111.135,111.09,111.135,4114
292,111.08,111.1,111.07,111.1,2727
293,111.06,111.06,111.06,111.06,300
294,111.11,111.12,111.07,111.07,1200
295,111.09,111.12,111.09,111.09,400
296,111.1,111.12,111.1,111.1,400
297,111.1,111.125,111.1,111.1,400
298,111.1,111.125,111.1,111.1,400
299,111.13,111.14,111.11,111.13,1500
300,111.12,111.135,111.12,111.13,1600
301,111.15,111.15,111.12,111.13,1500
302,111.13,111.16,111.13,111.155,4083
303,111.13,111.14,111.13,111.13,500
304,111.14,111.15,111.13,111.15,800
305,111.15,111.155,111.14,111.15,3600
306,111.13,111.16,111.13,111.155,1900
307,111.1,111.13,111.1,111.12,2011
308,111.08,111.08,111.08,111.08,500
309,111.11,111.12,111.08,111.08,700
310,111.09,111.13,111.09,111.09,400
311,111.14,111.14,111.09,111.09,1300
312,111.12,111.13,111.12,111.12,1325
313,111.15,111.16,111.13,111.14,4788
314,111.14,111.16,111.14,111.15,600
315,111.16,111.17,111.13,111.14,3100
316,111.15,111.16,111.15,111.16,300
317,111.14,111.165,111.14,111.165,600
318,111.13,111.13,111.13,111.13,300
319,111.12,111.15,111.12,111.14,3034
320,111.11,111.13,111.11,111.11,600
321,111.11,111.16,111.11,111.111,1228
322,111.13,111.13,111.11,111.11,600
323,111.08,111.12,111.08,111.12,691
324,111.08,111.09,111.07,111.07,1800
325,111.07,111.09,111.07,111.07,2100
326,111.08,111.11,111.08,111.09,1100
327,111.08,111.1,111.08,111.1,400
328,111.09,111.12,111.09,111.12,400
329,111.1896,111.19,111.12,111.14,1100
330,111.14,111.16,111.14,111.16,1435
331,111.13,111.15,111.13,111.15,759
332,111.14,111.157,111.14,111.14,2033
333,111.12,111.15,111.12,111.15,1400
334,111.12,111.13,111.11,111.12,1794
335,111.12,111.135,111.12,111.12,300
336,111.11,111.12,111.1,111.12,1600
337,111.15,111.155,111.105,111.11,3875
338,111.1399,111.15,111.12,111.14,1900
339,111.12,111.1399,111.12,111.13,933
340,111.14,111.15,111.14,111.15,1155
341,111.16,111.18,111.14,111.155,1900
342,111.14,111.1645,111.14,111.16,1868
343,111.15,111.15,111.12,111.15,1100
344,111.17,111.17,111.15,111.15,700
345,111.16,111.17,111.16,111.17,2404
346,111.13,111.16,111.13,111.16,3200
347,111.14,111.15,111.135,111.135,1550
348,111.15,111.16,111.15,111.15,700
349,111.14,111.15,111.13,111.15,2100
350,111.155,111.155,111.15,111.15,600
351,111.15,111.155,111.15,111.151,1800
352,111.15,111.16,111.14,111.15,2165
353,111.15,111.155,111.15,111.155,1306
354,111.14,111.16,111.14,111.155,3062
355,111.15,111.1533,111.14,111.14,492
356,111.15,111.155,111.15,111.155,1200
357,111.17,111.17,111.16,111.16,1600
358,111.18,111.2,111.18,111.18,1200
359,111.15,111.1845,111.15,111.1845,5029
360,111.15,111.16,111.15,111.15,1800
361,111.15,111.16,111.15,111.15,1200
362,111.15,111.155,111.15,111.15,3200
363,111.14,111.15,111.14,111.15,2129
364,111.145,111.1525,111.14,111.15,2300
365,111.15,111.16,111.14,111.14,4137
366,111.15,111.15,111.13,111.15,1800
367,111.12,111.15,111.12,111.15,2145
368,111.11,111.13,111.1,111.13,4760
369,111.09,111.1,111.09,111.09,3616
370,111.08,111.1,111.08,111.095,4950
371,111.08,111.08,111.08,111.08,1800
372,110.97,111.08,110.97,111.08,11325
373,111.05,111.07,110.97,110.97,7831
374,111.1,111.11,111.04,111.05,6711
375,111.08,111.1,111.07,111.1,2725
376,111.07,111.08,111.07,111.075,2700
377,111.07,111.08,111.07,111.07,3975
378,111.07,111.08,111.07,111.07,6618
379,111.05,111.07,111.04,111.07,9150
380,111.06,111.07,111.055,111.055,1910
381,111.065,111.07,111.06,111.07,8733
382,111.07,111.07,111.06,111.065,5077
383,111.055,111.07,111.05,111.06,18203
384,111.07,111.07,111.015,111.06,14793
385,111.065,111.07,111.06,111.065,6500
386,111.05,111.07,111.04,111.065,16940
387,111.085,111.0875,111.06,111.065,12848
388,111.1,111.12,111.08,111.085,23012
