EOG,EOG Resources,Energy,3,Oil & Gas Exploration & Production,54928249978,3013750
a1494855000,96.32,96.32,96.32,96.32,34505
1,96.54,96.58,96.28,96.5,10806
2,96.61,96.65,96.47,96.54,14277
3,96.52,96.6,96.51,96.6,4300
4,96.32,96.57,96.27,96.5325,18769
5,96.27,96.42,96.23,96.3699,14379
6,95.845,96.29,95.81,96.29,16476
7,95.7,95.9,95.69,95.9,8400
8,95.7,95.81,95.65,95.7,9897
9,95.89,95.95,95.72,95.75,13381
10,95.87,95.97,95.85,95.89,13442
11,95.86,95.95,95.83,95.87,9946
12,95.81,95.87,95.77,95.83,7950
13,95.72,95.85,95.72,95.84,9200
14,95.75,95.8999,95.63,95.69,31589
15,95.75,95.83,95.69,95.75,32666
16,95.51,95.76,95.5,95.71,14269
17,95.465,95.52,95.4,95.5,18745
18,95.3,95.5,95.3,95.49,16601
19,95.47,95.48,95.21,95.3,7100
20,95.55,95.55,95.44,95.5,22886
21,95.79,95.79,95.55,95.55,7306
22,95.74,95.79,95.61,95.76,13147
23,95.94,95.94,95.76,95.76,9427
24,95.9,96,95.86,95.94,17406
25,95.7,95.9,95.7,95.9,28971
26,95.7499,95.7499,95.68,95.7,10810
27,95.71,95.83,95.62,95.7499,19147
28,95.85,95.86,95.7,95.7,4533
29,95.75,95.92,95.71,95.89,10246
30,95.65,95.82,95.65,95.77,10285
31,95.68,95.72,95.6,95.68,27365
32,95.67,95.69,95.59,95.67,39597
33,95.59,95.68,95.54,95.68,32346
34,95.43,95.62,95.43,95.59,44280
35,95.52,95.53,95.42,95.46,14710
36,95.385,95.53,95.385,95.5,10744
37,95.54,95.54,95.37,95.37,4900
38,95.71,95.71,95.55,95.55,5600
39,95.715,95.74,95.64,95.73,6746
40,95.8,95.8,95.7,95.715,17114
41,95.85,95.88,95.73,95.795,12065
42,95.82,95.92,95.82,95.82,7900
43,95.99,95.99,95.83,95.83,4900
44,96.065,96.1,95.99,95.99,11972
45,95.94,96.1,95.94,96.08,5214
46,96.075,96.12,95.95,95.97,7225
47,96.095,96.11,96.06,96.07,5800
48,96.09,96.175,96.09,96.1,4800
49,96.08,96.09,96,96.09,8876
50,96.175,96.24,96.08,96.08,8605
51,96.08,96.175,96.04,96.15,15700
52,95.99,96.07,95.97,96.07,15848
53,95.96,95.99,95.945,95.985,7567
54,95.895,95.96,95.88,95.94,9978
55,95.75,95.895,95.75,95.895,2244
56,95.825,95.86,95.74,95.745,10505
57,95.89,95.89,95.75,95.84,9264
58,95.77,95.9,95.74,95.9,15328
59,95.69,95.79,95.63,95.755,8811
60,95.695,95.75,95.675,95.69,14823
61,95.65,95.68,95.6,95.68,28902
62,95.525,95.68,95.49,95.65,44668
63,95.545,95.62,95.44,95.53,24748
64,95.58,95.58,95.48,95.56,11179
65,95.57,95.645,95.53,95.55,17000
66,95.67,95.69,95.56,95.57,29021
67,95.645,95.67,95.52,95.65,29822
68,95.6,95.65,95.56,95.63,8800
69,95.605,95.615,95.55,95.59,8309
70,95.635,95.7,95.6,95.61,20810
71,95.599,95.63,95.56,95.6113,8942
72,95.63,95.7,95.57,95.57,24365
73,95.62,95.65,95.54,95.63,14200
74,95.515,95.67,95.49,95.6,51440
75,95.36,95.65,95.36,95.52,39647
76,95.2999,95.44,95.26,95.39,24750
77,95.18,95.25,95.14,95.25,15690
78,95.2,95.27,95.15,95.175,6262
79,95.135,95.16,95.08,95.16,3550
80,95.26,95.26,95.08,95.1,4575
81,95.27,95.27,95.1201,95.24,8304
82,95.2273,95.26,95.17,95.26,4661
83,95.382,95.39,95.22,95.22,5850
84,95.33,95.4,95.32,95.4,2500
85,95.3,95.37,95.2543,95.3,4413
86,95.355,95.39,95.304,95.304,2525
87,95.36,95.38,95.3,95.34,2600
88,95.37,95.43,95.36,95.375,4000
89,95.45,95.5138,95.41,95.41,3250
90,95.44,95.46,95.41,95.46,2400
91,95.53,95.53,95.45,95.45,3700
92,95.58,95.6,95.53,95.53,5100
93,95.64,95.66,95.55,95.58,5000
94,95.6343,95.67,95.57,95.63,3709
95,95.68,95.68,95.6,95.64,3325
96,95.48,95.69,95.45,95.6508,7025
97,95.39,95.52,95.39,95.51,1900
98,95.4,95.42,95.37,95.37,920
99,95.425,95.45,95.39,95.41,3400
100,95.42,95.45,95.38,95.44,5054
101,95.51,95.53,95.43,95.43,2650
102,95.48,95.52,95.48,95.52,2400
103,95.59,95.62,95.48,95.48,7184
104,95.58,95.63,95.561,95.59,3943
105,95.61,95.6497,95.59,95.6,5619
106,95.575,95.63,95.54,95.63,8820
107,95.58,95.5849,95.58,95.5849,300
108,95.61,95.64,95.59,95.6,4149
109,95.52,95.6,95.52,95.6,2600
110,95.555,95.555,95.51,95.51,2521
111,95.53,95.56,95.52,95.55,2335
112,95.54,95.5525,95.49,95.51,6078
113,95.53,95.55,95.46,95.52,2922
114,95.43,95.52,95.43,95.5,1700
115,95.45,95.52,95.415,95.42,7250
116,95.55,95.55,95.46,95.46,2133
117,95.59,95.62,95.52,95.565,3700
118,95.6,95.6,95.55,95.6,6600
119,95.63,95.63,95.59,95.61,1600
120,95.625,95.66,95.62,95.63,3005
121,95.595,95.625,95.52,95.61,9796
122,95.61,95.62,95.6,95.6,2000
123,95.6162,95.62,95.58,95.59,1600
124,95.54,95.67,95.54,95.63,7194
125,95.595,95.595,95.54,95.54,1300
126,95.49,95.595,95.49,95.59,4400
127,95.535,95.56,95.52,95.52,700
128,95.55,95.55,95.48,95.535,4300
129,95.45,95.55,95.45,95.55,3700
130,95.395,95.44,95.395,95.44,700
131,95.47,95.49,95.4224,95.4224,2250
132,95.57,95.57,95.5,95.5,2313
133,95.505,95.565,95.5,95.56,2600
135,95.52,95.55,95.47,95.495,5500
136,95.36,95.55,95.36,95.535,15600
137,95.365,95.38,95.34,95.37,3247
138,95.29,95.42,95.29,95.39,8412
139,95.41,95.42,95.29,95.29,2000
140,95.33,95.47,95.33,95.46,2855
141,95.405,95.405,95.3101,95.345,1216
142,95.41,95.47,95.38,95.38,3340
143,95.37,95.44,95.37,95.43,1700
144,95.47,95.5,95.34,95.36,7261
145,95.42,95.47,95.41,95.47,2986
146,95.42,95.44,95.37,95.42,2500
147,95.44,95.45,95.34,95.41,3403
148,95.4651,95.47,95.45,95.455,1600
149,95.48,95.48,95.41,95.44,2000
150,95.35,95.47,95.35,95.47,1620
151,95.43,95.43,95.33,95.33,2000
152,95.435,95.435,95.4313,95.435,550
153,95.41,95.435,95.33,95.41,4199
154,95.44,95.4625,95.4,95.425,3847
155,95.45,95.451,95.42,95.435,2600
156,95.41,95.435,95.35,95.43,2400
157,95.34,95.43,95.32,95.42,2650
158,95.45,95.45,95.34,95.34,2947
159,95.37,95.46,95.37,95.45,4598
160,95.41,95.42,95.34,95.36,2700
161,95.425,95.43,95.42,95.42,600
162,95.405,95.425,95.4,95.425,2224
163,95.4317,95.4317,95.39,95.39,1700
164,95.45,95.455,95.44,95.44,898
165,95.45,95.46,95.41,95.46,3000
166,95.46,95.47,95.45,95.46,1300
167,95.4,95.45,95.38,95.45,4683
168,95.42,95.455,95.41,95.415,2452
169,95.42,95.4271,95.4,95.4271,1800
170,95.435,95.435,95.4171,95.435,1850
171,95.435,95.46,95.41,95.435,1300
172,95.46,95.48,95.4101,95.4101,2313
173,95.44,95.45,95.39,95.45,2600
174,95.32,95.44,95.32,95.44,2400
175,95.365,95.365,95.32,95.32,400
176,95.34,95.39,95.34,95.39,4200
177,95.335,95.344,95.31,95.344,300
178,95.25,95.41,95.22,95.335,19079
179,95.26,95.285,95.26,95.27,1700
180,95.28,95.28,95.23,95.24,2134
181,95.275,95.29,95.275,95.29,700
182,95.29,95.31,95.26,95.29,2700
183,95.285,95.3074,95.285,95.3074,1750
184,95.31,95.31,95.27,95.27,500
185,95.23,95.32,95.19,95.31,4481
186,95.235,95.25,95.22,95.24,1500
187,95.25,95.28,95.235,95.235,3345
188,95.2,95.22,95.2,95.22,900
189,95.2,95.22,95.2,95.21,400
190,95.23,95.26,95.21,95.21,3300
191,95.22,95.24,95.22,95.23,1200
192,95.28,95.28,95.22,95.235,1900
193,95.24,95.29,95.22,95.2741,7000
194,95.23,95.24,95.23,95.235,1300
195,95.24,95.255,95.2,95.25,5000
196,95.285,95.29,95.26,95.26,1479
197,95.23,95.3,95.23,95.285,4057
198,95.23,95.275,95.23,95.2499,4262
199,95.26,95.27,95.23,95.23,1000
200,95.255,95.26,95.2317,95.26,4400
201,95.27,95.28,95.255,95.255,2600
202,95.28,95.29,95.26,95.285,3159
203,95.295,95.3,95.28,95.28,2021
204,95.27,95.28,95.25,95.28,2150
205,95.185,95.27,95.17,95.27,4575
206,95.21,95.22,95.17,95.17,2100
207,95.15,95.21,95.15,95.21,4590
208,95.1668,95.18,95.13,95.18,1050
209,95.15,95.1652,95.14,95.155,3017
210,95.15,95.15,95.11,95.14,2000
211,95.19,95.2,95.17,95.17,4134
212,95.175,95.19,95.17,95.19,1804
213,95.11,95.16,95.11,95.16,3394
214,95.15,95.18,95.13,95.14,4700
215,95.16,95.18,95.15,95.155,1700
216,95.19,95.21,95.16,95.18,3400
217,95.19,95.22,95.19,95.2,4810
218,95.205,95.227,95.17,95.19,2303
219,95.23,95.255,95.23,95.23,3400
220,95.29,95.29,95.21,95.21,700
221,95.26,95.28,95.24,95.28,3284
222,95.3,95.3225,95.29,95.29,3356
223,95.32,95.34,95.3,95.31,2140
224,95.35,95.36,95.35,95.35,1447
225,95.37,95.41,95.35,95.37,8510
226,95.335,95.41,95.31,95.41,6265
227,95.27,95.36,95.27,95.36,3000
228,95.23,95.28,95.22,95.27,3250
229,95.26,95.26,95.245,95.245,1714
230,95.16,95.28,95.16,95.26,7926
231,95.15,95.17,95.11,95.17,4295
232,95.16,95.18,95.14,95.17,2216
233,95.225,95.225,95.16,95.16,2300
234,95.195,95.24,95.19,95.24,2600
235,95.16,95.22,95.16,95.21,4000
236,95.16,95.21,95.16,95.19,3301
237,95.165,95.18,95.14,95.155,3450
238,95.179,95.18,95.16,95.165,1200
239,95.2,95.2,95.16,95.18,3400
240,95.18,95.195,95.16,95.195,3022
241,95.19,95.19,95.14,95.18,4250
242,95.18,95.2,95.18,95.2,1002
243,95.2,95.24,95.1971,95.1971,3145
244,95.21,95.23,95.21,95.23,3000
245,95.17,95.21,95.17,95.2,2100
246,95.15,95.185,95.11,95.17,6000
247,95.14,95.17,95.13,95.16,3000
248,95.145,95.145,95.1344,95.1344,420
249,95.1415,95.1415,95.1415,95.1415,200
250,95.12,95.16,95.12,95.145,2700
251,95.11,95.12,95.09,95.11,4274
252,95.01,95.1,94.99,95.1,19667
253,94.96,95.009,94.96,95.009,1395
254,94.94,94.97,94.94,94.96,2300
255,94.94,94.985,94.94,94.97,3959
256,94.97,95,94.94,94.94,7064
257,94.95,94.97,94.95,94.97,3260
258,94.94,94.96,94.92,94.95,4217
259,94.91,94.955,94.91,94.94,27300
260,94.925,94.95,94.88,94.91,14286
261,94.92,95,94.92,94.92,9250
262,94.975,94.975,94.92,94.92,1850
263,94.98,94.98,94.95,94.95,3192
264,94.91,95,94.91,94.98,12324
265,94.98,95,94.93,94.95,22835
266,94.86,94.98,94.85,94.977,16822
267,94.86,94.91,94.85,94.86,7910
268,94.8,94.91,94.78,94.8501,58154
269,94.81,94.86,94.81,94.81,10900
270,94.8,94.82,94.76,94.79,7538
271,94.78,94.885,94.78,94.82,9255
272,94.82,94.82,94.75,94.77,8113
273,94.75,94.82,94.72,94.81,8783
274,94.78,94.82,94.74,94.75,7100
275,94.73,94.78,94.72,94.78,4712
276,94.8,94.855,94.73,94.73,10146
277,94.75,94.77,94.72,94.77,2452
278,94.71,94.755,94.71,94.7401,10768
279,94.72,94.72,94.66,94.7,4771
280,94.65,94.71,94.65,94.71,8427
281,94.7,94.7,94.66,94.67,2050
282,94.65,94.69,94.63,94.69,5419
283,94.68,94.71,94.64,94.645,6250
284,94.65,94.65,94.57,94.64,8906
285,94.6752,94.68,94.63,94.66,4638
286,94.58,94.675,94.58,94.6601,3370
287,94.65,94.65,94.58,94.58,4000
288,94.68,94.7,94.66,94.66,2242
289,94.58,94.685,94.57,94.685,3300
290,94.64,94.64,94.55,94.57,4171
291,94.635,94.6585,94.63,94.63,5119
292,94.67,94.67,94.63,94.63,2471
293,94.63,94.68,94.63,94.66,2711
294,94.51,94.62,94.51,94.62,4963
295,94.45,94.52,94.45,94.49,4371
296,94.42,94.46,94.4,94.45,4105
297,94.4,94.46,94.4,94.4157,2785
298,94.35,94.41,94.34,94.4,6060
299,94.36,94.4,94.33,94.37,5141
300,94.445,94.445,94.4,94.4,5466
301,94.432,94.51,94.42,94.44,6600
302,94.49,94.5,94.44,94.44,2600
303,94.51,94.52,94.495,94.495,3000
304,94.48,94.52,94.46,94.52,5596
305,94.4815,94.49,94.44,94.47,3900
306,94.44,94.5,94.44,94.49,4282
307,94.445,94.45,94.42,94.44,3930
308,94.44,94.46,94.42,94.46,2700
309,94.5198,94.52,94.43,94.44,4259
310,94.48,94.52,94.48,94.52,2000
311,94.54,94.58,94.51,94.51,5235
312,94.49,94.55,94.45,94.54,2749
313,94.47,94.51,94.47,94.49,3100
314,94.529,94.529,94.45,94.46,3701
315,94.5014,94.51,94.49,94.5068,2722
316,94.51,94.53,94.5,94.51,2264
317,94.53,94.57,94.53,94.54,5433
318,94.51,94.53,94.5,94.53,27190
319,94.35,94.51,94.34,94.51,9900
320,94.35,94.4,94.35,94.38,4200
321,94.4,94.42,94.3711,94.3711,4200
322,94.41,94.42,94.4,94.4,1900
323,94.46,94.47,94.43,94.43,2800
324,94.34,94.46,94.34,94.45,4558
325,94.34,94.39,94.32,94.32,2664
326,94.255,94.3544,94.25,94.3544,7435
327,94.17,94.26,94.17,94.24,5900
328,94.19,94.2,94.13,94.19,4900
329,94.18,94.23,94.18,94.19,5800
330,94.17,94.22,94.17,94.2,5444
331,94.17,94.2,94.15,94.19,5000
332,94.15,94.2,94.15,94.18,4389
333,94.18,94.21,94.12,94.16,6300
334,94.21,94.225,94.19,94.19,2200
335,94.16,94.2261,94.16,94.225,4102
336,94.175,94.1777,94.16,94.175,1931
337,94.29,94.31,94.16,94.1887,11819
338,94.34,94.34,94.28,94.29,6308
339,94.32,94.36,94.31,94.345,20497
340,94.395,94.4,94.32,94.32,12800
341,94.45,94.47,94.39,94.39,10771
342,94.52,94.54,94.47,94.47,11075
343,94.44,94.51,94.44,94.51,6379
344,94.53,94.53,94.46,94.46,4117
345,94.6,94.605,94.54,94.54,13200
346,94.48,94.59,94.48,94.58,7524
347,94.47,94.5,94.46,94.46,8914
348,94.46,94.489,94.46,94.47,5507
349,94.485,94.52,94.46,94.46,6500
350,94.51,94.51,94.46,94.47,3575
351,94.57,94.58,94.5,94.505,12149
352,94.56,94.585,94.56,94.57,7491
353,94.48,94.57,94.47,94.56,6800
354,94.51,94.53,94.49,94.49,9500
355,94.61,94.62,94.52,94.52,10256
356,94.71,94.71,94.6,94.61,15351
357,94.7,94.73,94.69,94.7,11631
358,94.68,94.72,94.68,94.69,7508
359,94.67,94.7,94.64,94.68,10786
360,94.66,94.79,94.64,94.67,22550
361,94.6,94.68,94.6,94.67,13292
362,94.695,94.695,94.58,94.62,11216
363,94.74,94.76,94.66,94.69,13366
364,94.765,94.765,94.73,94.74,6804
365,94.77,94.81,94.76,94.76,17314
366,94.81,94.82,94.77,94.77,9574
367,94.69,94.81,94.69,94.81,15535
368,94.68,94.72,94.66,94.68,13751
369,94.64,94.68,94.64,94.67,5712
370,94.66,94.68,94.65,94.66,13258
371,94.695,94.7,94.65,94.66,9459
372,94.695,94.7,94.68,94.69,12375
373,94.7,94.71,94.69,94.69,8328
374,94.76,94.785,94.7,94.7,15764
375,94.71,94.77,94.69,94.76,33214
376,94.86,94.88,94.74,94.74,21146
377,94.935,94.95,94.85,94.855,31319
378,94.93,94.935,94.86,94.935,23883
379,94.99,94.99,94.91,94.925,22507
380,95.02,95.02,94.98,94.98,25619
381,94.945,95.005,94.94,94.99,27173
382,94.86,94.945,94.85,94.945,17077
383,94.85,94.87,94.84,94.86,27785
384,94.885,94.89,94.84,94.85,36922
385,94.93,94.94,94.88,94.885,33249
386,94.8425,94.94,94.84,94.935,65227
387,94.92,94.92,94.84,94.84,66580
388,94.975,95,94.91,94.92,91214
389,95.03,95.06,94.97,94.97,137529
390,94.76,95.02,94.71,95.02,170717
