PPG,PPG Industries,Materials,8,Specialty Chemicals,27576611696,1276947
a1494855000,107.16,107.16,107.16,107.16,9697
1,107.31,107.43,107.155,107.23,1300
2,107.86,107.86,107.44,107.44,2750
3,107.97,107.97,107.97,107.97,100
4,107.77,107.87,107.77,107.87,224
5,107.87,107.87,107.87,107.87,300
6,107.92,108,107.7,107.9,5000
7,107.87,107.93,107.85,107.8503,900
8,107.95,107.95,107.945,107.95,900
9,108.11,108.15,107.96,107.96,1777
10,108.21,108.25,108.07,108.11,1824
11,108.03,108.33,108,108.22,2501
12,108.11,108.27,107.95,108.05,7727
13,108.01,108.06,108.01,108.06,501
15,108.24,108.37,108.1197,108.14,2554
16,108.21,108.28,108.15,108.28,14600
17,108.24,108.42,108.18,108.18,6311
18,108.26,108.31,108.18,108.22,2681
19,108.21,108.33,108.15,108.28,3700
20,108.17,108.17,108.17,108.17,100
21,108.11,108.21,108.085,108.1803,9963
22,108.12,108.16,108.05,108.15,4200
23,108.13,108.18,108.0809,108.0809,900
24,108.07,108.14,108.07,108.12,1000
25,108.06,108.08,107.985,108.06,2200
26,108.03,108.07,108.03,108.06,1349
27,107.984,107.984,107.984,107.984,300
28,107.9,107.93,107.9,107.93,600
29,107.87,107.9499,107.87,107.9122,2765
30,108,108,107.91,107.91,1055
31,107.97,108.03,107.97,108.005,2901
32,108,108,107.97,107.97,600
33,108,108.015,107.99,107.99,1753
34,107.97,107.99,107.96,107.99,2773
35,107.97,108,107.97,108,1000
36,107.955,107.99,107.955,107.99,1800
37,108.05,108.07,107.96,107.97,4700
38,108.07,108.07,107.99,108.05,5800
39,108.06,108.09,108.05,108.09,2301
40,108.09,108.1,108.06,108.06,844
41,108.08,108.14,108.05,108.12,2501
42,108.05,108.07,108.03,108.07,2100
43,108.03,108.05,107.997,108.05,1550
44,108.02,108.04,108,108.04,1521
45,108.05,108.07,108.03,108.05,1300
46,108.055,108.1,108.04,108.05,1700
47,108.02,108.03,108,108.03,1500
48,108.02,108.04,108,108.01,7100
49,108.05,108.09,108.03,108.03,1300
50,108.05,108.05,108.05,108.05,400
51,108.03,108.08,108,108.03,4401
52,108.02,108.02,108.02,108.02,100
53,108,108,107.97,108,6460
54,108,108,107.96,107.97,2524
55,108,108.0027,108,108.0027,616
56,107.98,108.01,107.97,108,5405
57,107.96,107.97,107.96,107.9697,4417
58,107.96,107.97,107.95,107.96,1100
59,107.96,107.98,107.91,107.94,2900
60,107.97,107.97,107.95,107.965,8559
61,108.04,108.04,107.95,107.95,30969
62,108.02,108.04,107.95,108.04,2100
63,108,108,107.99,107.99,200
64,108.02,108.04,107.99,108.0199,7060
65,108.06,108.06,108.03,108.05,400
66,108.12,108.12,108.05,108.07,6706
67,108.08,108.1,108.07,108.1,3675
68,108.07,108.12,108.07,108.08,900
69,108.08,108.08,108,108.06,2667
70,108.062,108.062,108.03,108.03,250
71,108.015,108.015,108.015,108.015,600
72,107.99,107.9961,107.98,107.9961,1400
73,108,108,107.99,107.99,300
74,108,108.01,107.97,107.98,1845
75,108,108,107.98,107.99,1112
76,108,108.03,107.99,107.99,800
77,108.01,108.01,107.99,107.99,200
78,107.9917,107.9917,107.955,107.98,2150
79,107.98,107.98,107.97,107.97,245
80,107.975,107.975,107.97,107.97,771
81,108.11,108.11,107.99,107.99,4545
82,108.12,108.12,108.08,108.08,300
83,108.0781,108.09,108.0781,108.08,856
84,108.08,108.1,108.07,108.09,1500
86,108,108.05,108,108.025,800
87,107.99,108,107.9,108,1900
88,107.97,107.97,107.97,107.97,200
89,108.02,108.02,107.965,107.965,946
90,108.04,108.04,108,108,400
91,107.97,107.97,107.97,107.97,345
92,108.05,108.13,108.01,108.01,900
93,108.04,108.04,108.04,108.04,100
94,108,108.035,108,108.035,500
95,108.015,108.02,107.99,108.02,953
97,108.07,108.07,108.01,108.04,1150
98,108.03,108.06,108.03,108.06,200
99,108,108.03,108,108.03,306
100,107.975,107.99,107.975,107.99,600
102,107.995,107.995,107.97,107.97,400
103,107.97,107.9794,107.97,107.9794,366
105,107.99,107.99,107.965,107.99,1600
106,107.97,107.98,107.97,107.98,200
107,108.03,108.03,107.9925,108,1357
108,108.06,108.06,108.035,108.035,800
110,108.0201,108.06,108.0201,108.05,1407
111,108.02,108.02,108.02,108.02,100
112,108.05,108.05,108.05,108.05,300
115,108.04,108.04,107.985,108.01,600
116,108.04,108.04,107.9801,107.9801,1200
117,108.02,108.02,108.02,108.02,100
118,108.1036,108.11,108.05,108.05,1912
119,108.04,108.07,108.04,108.07,446
122,108.06,108.06,108.0355,108.0355,1618
123,108,108,108,108,100
124,108.03,108.06,108.03,108.04,700
125,108.07,108.07,108.06,108.06,400
126,108.09,108.09,108.09,108.09,154
127,108.05,108.07,108.05,108.06,301
128,108.07,108.11,108.07,108.07,1600
129,108.06,108.0781,108.05,108.0781,503
131,108.02,108.02,108.02,108.02,300
132,108.03,108.06,108.025,108.025,1072
133,108.06,108.06,108.039,108.039,809
134,108.02,108.06,108.02,108.06,400
135,108.04,108.04,108.04,108.04,100
136,108.03,108.03,108.01,108.01,429
137,108.03,108.04,108.03,108.04,300
138,108.07,108.07,108.03,108.03,800
139,108.035,108.08,108.035,108.05,800
140,108.0296,108.04,108.02,108.0348,450
141,108.04,108.04,108.04,108.04,100
143,108.07,108.07,108.03,108.03,1100
144,108.07,108.08,108.07,108.08,200
145,108.1,108.1,108.04,108.04,600
146,108.11,108.11,108.11,108.11,100
147,108.085,108.14,108.085,108.13,1400
148,108.07,108.08,108.07,108.08,900
149,108.1,108.1,108.08,108.08,700
150,108.14,108.14,108.11,108.11,400
151,108.165,108.17,108.12,108.12,1309
152,108.16,108.18,108.15,108.18,1200
155,108.13,108.13,108.13,108.13,200
156,108.19,108.19,108.12,108.13,1400
157,108.16,108.18,108.16,108.18,800
159,108.16,108.17,108.16,108.17,580
160,108.17,108.17,108.165,108.165,700
161,108.155,108.16,108.15,108.16,700
163,108.15,108.15,108.14,108.14,200
164,108.15,108.1532,108.15,108.1532,528
165,108.12,108.14,108.12,108.14,500
166,108.14,108.14,108.12,108.12,600
167,108.15,108.15,108.14,108.14,850
168,108.19,108.19,108.14,108.165,552
172,108.17,108.17,108.17,108.17,100
173,108.17,108.17,108.17,108.17,100
174,108.16,108.16,108.16,108.16,334
176,108.14,108.14,108.14,108.14,100
177,108.13,108.14,108.12,108.14,500
179,108.14,108.14,108.14,108.14,400
180,108.16,108.16,108.15,108.15,200
181,108.13,108.13,108.13,108.13,100
184,108.13,108.15,108.125,108.13,800
185,108.14,108.14,108.0801,108.0801,300
187,108.14,108.14,108.115,108.115,200
189,108.12,108.12,108.12,108.12,200
191,108.14,108.14,108.14,108.14,100
192,108.11,108.12,108.095,108.12,1033
193,108.11,108.11,108.11,108.11,100
194,108.11,108.11,108.1,108.1,600
196,108.115,108.115,108.1,108.1,800
197,108.1,108.1,108.1,108.1,124
199,108.12,108.13,108.12,108.12,900
200,108.08,108.13,108.08,108.13,1400
202,108.09,108.09,108.08,108.08,500
205,108.05,108.07,108.05,108.07,401
206,108.005,108.035,108.005,108.035,900
207,108,108.0021,107.97,108,614
208,108.03,108.03,107.9876,107.9876,3133
209,108.05,108.05,108.03,108.03,300
210,108.06,108.06,108.05,108.05,200
211,108.06,108.07,108.06,108.07,200
212,108.08,108.1,108.08,108.09,500
213,108.07,108.08,108.06,108.08,1100
214,108.05,108.06,108.05,108.06,300
215,108.03,108.04,108.03,108.04,900
216,108.07,108.07,108.05,108.05,1000
217,108.0686,108.0686,108.05,108.06,782
218,108.08,108.1,108.08,108.08,850
221,108.09,108.09,108.09,108.09,500
222,108.1,108.1,108.1,108.1,200
224,108.12,108.12,108.12,108.12,200
225,108.1325,108.1325,108.11,108.13,1000
226,108.13,108.13,108.13,108.13,100
227,108.12,108.12,108.12,108.12,300
228,108.11,108.11,108.11,108.11,100
230,108.1199,108.14,108.11,108.14,930
231,108.1,108.11,108.1,108.11,200
232,108.135,108.14,108.12,108.12,1566
233,108.115,108.13,108.115,108.13,900
235,108.09,108.1,108.09,108.1,400
236,108.13,108.13,108.06,108.08,7600
237,108.19,108.19,108.13,108.13,1024
239,108.16,108.18,108.15,108.16,1200
240,108.17,108.17,108.17,108.17,100
241,108.12,108.12,108.12,108.12,100
246,108.125,108.125,108.11,108.11,700
247,108.15,108.16,108.13,108.13,1601
248,108.16,108.16,108.1301,108.1301,500
249,108.1425,108.1425,108.1425,108.1425,100
250,108.125,108.13,108.125,108.13,400
251,108.16,108.16,108.09,108.11,800
252,108.144,108.1585,108.144,108.1585,210
253,108.1403,108.1403,108.1403,108.1403,200
254,108.1325,108.16,108.1325,108.16,300
255,108.135,108.135,108.13,108.13,510
256,108.12,108.165,108.12,108.15,3400
257,108.11,108.11,108.11,108.11,100
258,108.12,108.12,108.105,108.105,422
259,108.11,108.11,108.11,108.11,100
260,108.125,108.125,108.125,108.125,100
261,108.13,108.13,108.1,108.11,1200
263,108.125,108.132,108.11,108.13,700
264,108.12,108.12,108.12,108.12,645
265,108.11,108.11,108.11,108.11,100
266,108.1,108.12,108.1,108.12,500
267,108.1,108.1,108.0875,108.09,600
268,108.09,108.09,108.09,108.09,100
269,108.105,108.105,108.09,108.09,200
270,108.11,108.11,108.08,108.105,2300
271,108.095,108.11,108.095,108.1,400
273,108.05,108.08,108.05,108.07,500
274,108.065,108.08,108.04,108.04,2400
275,108.08,108.1,108.08,108.08,1300
276,108.0227,108.04,108.01,108.02,1245
278,108.045,108.045,108.01,108.0168,2136
280,108.05,108.05,108.02,108.02,2242
281,108.02,108.03,108,108.03,1000
284,108.01,108.01,108.01,108.01,200
285,108.03,108.03,108.01,108.01,1700
286,108.06,108.06,108.0289,108.04,491
287,108.06,108.06,108.02,108.035,800
288,108.01,108.01,108,108.01,1000
289,108.04,108.04,108.04,108.04,100
290,108.0109,108.0109,107.98,107.98,200
291,107.995,108,107.995,108,200
292,108.02,108.02,108,108,949
294,108,108.01,108,108.01,700
295,108,108,108,108,900
296,107.935,108.0015,107.935,108.0015,3736
297,107.965,107.99,107.93,107.935,8400
298,107.925,107.925,107.925,107.925,500
299,107.9048,107.9518,107.9,107.94,2225
300,107.94,107.94,107.88,107.89,2300
301,107.965,107.97,107.94,107.94,6572
302,107.92,107.93,107.92,107.93,200
303,107.92,107.92,107.92,107.92,300
304,107.9,107.92,107.9,107.92,200
306,107.92,107.96,107.9115,107.9115,2613
308,107.9526,107.9526,107.9526,107.9526,122
309,107.91,107.91,107.91,107.91,400
312,107.9,107.92,107.9,107.9,948
313,107.9338,107.9338,107.9338,107.9338,112
315,107.92,107.92,107.91,107.91,200
318,107.93,107.93,107.93,107.93,500
320,107.94,107.94,107.94,107.94,100
321,107.93,107.93,107.9,107.9,200
322,107.915,107.915,107.91,107.91,300
323,107.99,107.99,107.9,107.9,4200
324,107.9972,108,107.997,108,400
325,107.98,107.98,107.97,107.98,700
326,107.96,107.97,107.96,107.97,533
327,107.98,107.98,107.95,107.96,1000
328,107.9563,107.96,107.95,107.96,615
329,107.97,107.97,107.9564,107.9564,1700
330,107.98,107.98,107.98,107.98,100
332,107.98,108.0022,107.98,107.98,1911
333,107.98,107.98,107.96,107.98,900
334,107.985,107.985,107.98,107.98,600
335,107.98,107.99,107.94,107.96,1300
336,108,108,107.99,107.99,856
337,108.02,108.02,107.98,107.9962,987
338,108.04,108.04,108.04,108.04,200
339,108.03,108.065,108.03,108.05,701
340,108.0386,108.0386,108.0386,108.0386,200
341,108.03,108.03,108.01,108.03,900
342,107.995,108.02,107.995,108.02,1601
343,107.99,108.01,107.99,108.01,1200
345,107.98,107.98,107.98,107.98,200
346,107.99,108.004,107.98,108,1519
347,108,108.01,108,108.01,200
348,108.02,108.02,108.02,108.02,100
349,108,108.026,108,108.026,2003
350,107.99,108.02,107.98,108,2210
351,108,108,107.99,107.99,720
352,107.99,108,107.98,108,1169
353,108.01,108.02,108.01,108.01,543
354,108,108,108,108,1300
355,107.99,108,107.99,108,300
356,108,108.02,108,108.01,500
357,108.05,108.05,108.01,108.01,700
358,108.03,108.03,108.03,108.03,100
359,108,108.02,107.98,108.02,2379
360,107.97,108,107.97,107.99,1700
361,108,108,107.97,107.98,2191
362,108.03,108.03,108.02,108.02,300
363,108.02,108.03,108,108.03,3414
364,108.005,108.01,107.99,108.01,300
365,107.993,108.005,107.993,108.005,200
366,107.99,108.02,107.99,108.005,1923
367,107.95,107.95,107.95,107.95,400
368,107.93,107.93,107.93,107.93,100
369,107.91,107.95,107.91,107.93,2399
370,107.89,107.9,107.89,107.9,1180
371,107.885,107.89,107.88,107.89,800
372,107.89,107.89,107.87,107.88,1100
373,107.88,107.885,107.88,107.88,800
374,107.905,107.905,107.88,107.88,2800
375,107.9,107.9,107.88,107.9,4995
376,107.99,107.99,107.905,107.905,2200
377,107.99,108,107.98,108,2580
378,108.01,108.02,107.995,107.995,1677
379,108.02,108.02,107.99,108.02,2642
380,108.03,108.04,108.02,108.02,1150
381,108.01,108.03,108.005,108.03,3179
382,108,108.02,107.98,108.02,2215
383,108.02,108.04,108,108,3736
384,108.01,108.03,108,108.01,1666
385,108.03,108.04,108.01,108.02,4261
386,108.01,108.04,108,108.04,2577
387,107.97,108.01,107.97,108.01,2305
388,107.97,107.97,107.96,107.97,5707
389,108.02,108.04,107.98,107.98,6246
390,107.98,108.03,107.97,108.03,16463
