PPG,PPG Industries,Materials,8,Specialty Chemicals,28371048415,1245102
a1498656600,111,111,111,111,14623
1,111.175,111.175,111.175,111.175,100
2,111.2,111.2,111.175,111.175,2790
3,111.02,111.225,111.02,111.225,3654
4,110.95,111.04,110.95,111.04,4650
5,110.95,110.96,110.95,110.96,500
6,110.9601,111.015,110.96,111.015,1916
7,111.06,111.07,110.96,110.97,3200
8,111.03,111.03,111.03,111.03,200
9,111.03,111.1125,110.96,110.99,14634
10,111.04,111.0575,111.03,111.03,2544
11,111.05,111.05,111.03,111.03,1550
12,111.03,111.05,111.005,111.0319,7000
13,110.99,111.02,110.89,110.98,2787
14,111.06,111.06,110.94,111,1800
15,111.045,111.07,111.045,111.06,2800
16,110.95,111.0025,110.95,111,1657
17,110.94,110.94,110.94,110.94,600
18,110.98,110.98,110.98,110.98,300
19,111.03,111.07,110.93,110.98,8165
20,111.06,111.07,111.01,111.05,2900
21,111.05,111.06,111.02,111.05,2225
22,111.07,111.09,111.045,111.0456,1320
23,111.065,111.08,111.01,111.055,6275
25,111.06,111.07,111.04,111.04,600
26,111.11,111.12,111.065,111.065,800
27,111.135,111.16,111.11,111.13,7010
28,111.12,111.13,111.12,111.13,1090
29,111.1,111.125,111.1,111.12,700
30,111.08,111.11,111.08,111.09,1239
31,111.06,111.07,111.05,111.065,4000
32,111.085,111.09,111.03,111.04,3300
34,111.07,111.11,111.05,111.09,3900
35,111.08,111.09,111.06,111.07,1300
36,111.1,111.1,111.08,111.09,3600
37,111.13,111.14,111.0875,111.1,15297
38,111.16,111.17,111.11,111.13,22097
39,111.085,111.16,111.085,111.16,4928
40,111.11,111.12,111.1,111.1,2600
41,111.03,111.1,111.03,111.1,1000
42,111.01,111.01,111.01,111.01,500
43,111.12,111.12,111.04,111.04,1000
44,111.1025,111.1025,111.09,111.1,600
45,111.06,111.08,111.055,111.07,1200
46,111.05,111.05,111.04,111.05,800
47,111.07,111.1,111.01,111.06,6739
48,111.08,111.09,111.04,111.05,1300
49,111.07,111.0801,111.07,111.0801,300
50,111.09,111.1299,111.08,111.09,2623
51,111.09,111.095,111.03,111.08,3014
52,111.08,111.09,111.08,111.09,300
53,111.095,111.11,111.07,111.07,1000
54,111.12,111.12,111.1,111.1,500
55,111.08,111.115,111.08,111.115,800
56,111.09,111.09,111.06,111.08,1800
58,111.0871,111.12,111.0871,111.12,1300
59,111.1,111.115,111.0899,111.115,3200
60,111.075,111.1,111.075,111.1,1000
61,111.1,111.11,111.08,111.09,1772
62,111.1,111.1,111.08,111.08,300
63,111.1399,111.19,111.09,111.13,16062
64,111.18,111.18,111.14,111.14,1874
65,111.16,111.17,111.16,111.16,3900
66,111.13,111.16,111.13,111.16,500
67,111.11,111.13,111.08,111.115,9100
68,111.105,111.11,111.1,111.11,2484
69,111.1,111.115,111.09,111.1,2500
70,111.06,111.06,111.06,111.06,500
71,111.18,111.18,111.08,111.09,1600
72,111.165,111.1758,111.15,111.15,807
73,111.165,111.165,111.14,111.14,700
74,111.16,111.17,111.15,111.16,5600
75,111.14,111.15,111.125,111.15,1377
76,111.14,111.15,111.14,111.15,764
77,111.14,111.14,111.11,111.13,1100
78,111.15,111.16,111.15,111.16,900
79,111.14,111.17,111.14,111.17,1200
80,111.16,111.16,111.13,111.1425,700
81,111.16,111.16,111.15,111.16,2275
82,111.15,111.15,111.15,111.15,100
83,111.12,111.14,111.03,111.14,4754
84,111.12,111.12,111.12,111.12,200
85,111.11,111.14,111.1,111.1,10003
86,111.09,111.1,111.09,111.1,1510
87,111.175,111.19,111.1,111.1,4633
88,111.175,111.175,111.16,111.175,646
89,111.16,111.19,111.16,111.19,700
90,111.16,111.18,111.13,111.16,3701
91,111.17,111.17,111.15,111.16,1900
92,111.22,111.25,111.17,111.17,2990
93,111.235,111.24,111.23,111.24,2495
94,111.23,111.255,111.23,111.235,4359
95,111.22,111.22,111.185,111.22,2473
97,111.18,111.2,111.18,111.2,800
98,111.24,111.24,111.17,111.19,1200
99,111.21,111.22,111.19,111.22,1700
100,111.215,111.215,111.2,111.2,800
102,111.23,111.23,111.23,111.23,200
103,111.22,111.24,111.19,111.225,3816
104,111.22,111.23,111.21,111.22,2100
105,111.2,111.225,111.2,111.22,2807
106,111.23,111.23,111.2,111.21,1387
107,111.25,111.25,111.225,111.23,1600
108,111.25,111.25,111.23,111.23,600
109,111.255,111.255,111.235,111.25,500
110,111.27,111.27,111.23,111.245,1300
112,111.24,111.25,111.23,111.25,1800
113,111.23,111.24,111.23,111.24,500
114,111.2625,111.2625,111.2625,111.2625,100
115,111.2575,111.2575,111.2401,111.2401,2600
116,111.245,111.26,111.24,111.255,1500
117,111.2475,111.2475,111.21,111.2475,4202
118,111.22,111.22,111.22,111.22,500
120,111.245,111.245,111.24,111.24,1832
121,111.22,111.25,111.21,111.245,8899
122,111.27,111.27,111.25,111.25,200
123,111.21,111.23,111.21,111.23,1500
124,111.265,111.265,111.21,111.21,3400
125,111.255,111.255,111.25,111.25,800
126,111.23,111.26,111.22,111.25,14777
127,111.235,111.24,111.23,111.235,1800
128,111.235,111.2375,111.235,111.235,600
129,111.2375,111.24,111.22,111.23,12905
130,111.24,111.24,111.22,111.235,10442
131,111.23,111.24,111.225,111.235,5526
132,111.23,111.235,111.225,111.235,12800
133,111.235,111.24,111.22,111.23,12300
134,111.235,111.235,111.22,111.22,7877
135,111.22,111.23,111.22,111.23,2200
136,111.24,111.25,111.21,111.21,5197
137,111.24,111.25,111.24,111.25,1798
138,111.24,111.2475,111.24,111.24,3194
139,111.235,111.25,111.23,111.24,2922
140,111.235,111.2375,111.23,111.235,2252
141,111.235,111.24,111.23,111.235,2213
142,111.235,111.235,111.22,111.235,9094
143,111.23,111.235,111.23,111.23,5675
144,111.23,111.235,111.23,111.23,1000
145,111.23,111.25,111.22,111.23,5837
146,111.23,111.235,111.225,111.23,10990
147,111.235,111.2375,111.23,111.23,9476
148,111.24,111.24,111.23,111.23,11143
149,111.26,111.26,111.235,111.24,5000
150,111.28,111.28,111.245,111.245,5515
151,111.285,111.3,111.27,111.29,3900
152,111.3,111.3,111.28,111.285,2800
153,111.3,111.3,111.27,111.285,1100
154,111.23,111.2925,111.23,111.29,4334
155,111.26,111.26,111.24,111.24,1300
158,111.255,111.26,111.23,111.25,7506
159,111.24,111.26,111.24,111.255,6497
161,111.23,111.25,111.23,111.24,11273
162,111.23,111.23,111.23,111.23,100
163,111.22,111.24,111.22,111.24,2000
164,111.21,111.22,111.21,111.213,800
165,111.17,111.2,111.1557,111.2,2700
166,111.15,111.18,111.15,111.16,1028
167,111.14,111.15,111.13,111.14,1800
168,111.15,111.15,111.135,111.135,400
169,111.145,111.145,111.145,111.145,100
170,111.14,111.14,111.13,111.13,800
171,111.14,111.17,111.135,111.15,1727
172,111.16,111.16,111.14,111.14,400
173,111.24,111.24,111.175,111.175,1100
174,111.1801,111.22,111.18,111.21,6337
175,111.2017,111.2017,111.195,111.2,2400
177,111.18,111.2,111.18,111.2,2550
178,111.17,111.18,111.17,111.18,2700
179,111.15,111.17,111.15,111.17,300
180,111.17,111.17,111.16,111.16,400
183,111.19,111.19,111.18,111.18,1600
184,111.19,111.19,111.19,111.19,500
186,111.2,111.205,111.18,111.18,4500
187,111.205,111.2075,111.205,111.205,300
188,111.205,111.2075,111.2,111.2075,2900
189,111.2,111.21,111.18,111.205,4034
190,111.205,111.205,111.2,111.2,1000
191,111.18,111.2,111.18,111.2,1900
192,111.21,111.21,111.19,111.19,1773
193,111.215,111.215,111.21,111.21,700
194,111.21,111.21,111.21,111.21,560
195,111.21,111.215,111.21,111.21,443
196,111.1825,111.215,111.18,111.21,4900
197,111.19,111.2,111.18,111.19,2089
199,111.215,111.215,111.215,111.215,200
200,111.21,111.21,111.21,111.21,100
201,111.215,111.215,111.21,111.21,500
202,111.21,111.22,111.2,111.22,1700
203,111.205,111.22,111.205,111.21,4941
204,111.2,111.205,111.2,111.205,500
205,111.205,111.205,111.205,111.205,500
206,111.21,111.21,111.2,111.205,13706
207,111.215,111.22,111.205,111.21,3880
208,111.215,111.215,111.21,111.215,1500
209,111.16,111.22,111.16,111.22,5008
210,111.2,111.2,111.18,111.18,2500
211,111.22,111.225,111.2,111.21,3361
213,111.19,111.21,111.19,111.21,800
214,111.16,111.18,111.15,111.17,1400
215,111.2005,111.2005,111.165,111.18,2126
216,111.2,111.2,111.2,111.2,1100
217,111.18,111.1966,111.18,111.1966,1500
218,111.15,111.17,111.15,111.17,1100
221,111.145,111.145,111.125,111.14,1880
222,111.165,111.165,111.15,111.15,800
223,111.165,111.165,111.165,111.165,160
224,111.17,111.18,111.17,111.18,3411
225,111.18,111.18,111.18,111.18,100
226,111.205,111.205,111.19,111.19,3501
227,111.2,111.21,111.195,111.205,1537
228,111.21,111.21,111.195,111.2,1900
229,111.18,111.2,111.17,111.2,3089
230,111.205,111.21,111.18,111.19,1400
231,111.205,111.205,111.205,111.205,100
232,111.2,111.2,111.18,111.2,2803
235,111.2,111.21,111.2,111.2,3490
236,111.205,111.2075,111.2,111.2,3700
237,111.2,111.21,111.19,111.205,4572
238,111.2,111.2,111.1856,111.19,1070
239,111.2,111.2,111.2,111.2,400
240,111.2122,111.2122,111.2122,111.2122,294
241,111.205,111.2075,111.205,111.205,400
242,111.205,111.2068,111.205,111.205,360
243,111.2,111.21,111.2,111.2075,1400
244,111.2,111.2,111.18,111.2,4106
246,111.21,111.21,111.19,111.19,1873
247,111.215,111.22,111.205,111.205,3172
248,111.245,111.25,111.215,111.215,3226
250,111.24,111.24,111.24,111.24,1145
251,111.235,111.235,111.22,111.23,2400
252,111.225,111.24,111.225,111.23,4500
253,111.2134,111.22,111.2134,111.22,475
254,111.205,111.21,111.18,111.21,3399
256,111.21,111.22,111.205,111.21,3100
258,111.2,111.2,111.19,111.2,2526
259,111.205,111.21,111.2,111.2,3237
260,111.205,111.21,111.205,111.21,500
261,111.205,111.2062,111.205,111.2062,269
262,111.2075,111.2075,111.2,111.2059,1100
263,111.19,111.2,111.19,111.2,2101
264,111.21,111.21,111.18,111.2,2817
265,111.205,111.205,111.18,111.2,2548
266,111.205,111.205,111.205,111.205,1069
267,111.205,111.21,111.205,111.205,2810
268,111.2,111.21,111.19,111.21,3500
269,111.2,111.2,111.2,111.2,805
270,111.22,111.22,111.19,111.2,4661
271,111.24,111.24,111.225,111.225,1006
272,111.235,111.24,111.235,111.235,2508
273,111.235,111.24,111.235,111.24,400
274,111.25,111.25,111.23,111.23,1307
275,111.26,111.26,111.26,111.26,400
276,111.255,111.26,111.255,111.26,8150
277,111.255,111.26,111.25,111.26,2700
278,111.255,111.26,111.2533,111.255,2809
279,111.24,111.255,111.23,111.255,3623
280,111.28,111.28,111.24,111.24,3181
281,111.265,111.29,111.26,111.29,700
282,111.27,111.27,111.265,111.265,800
283,111.29,111.29,111.29,111.29,100
284,111.265,111.28,111.265,111.28,5615
285,111.265,111.27,111.265,111.265,700
286,111.26,111.27,111.26,111.265,1700
287,111.25,111.27,111.24,111.27,3486
288,111.24,111.26,111.24,111.26,1213
289,111.25,111.25,111.24,111.24,1525
290,111.24,111.25,111.24,111.25,1585
292,111.17,111.2302,111.17,111.23,5450
293,111.19,111.2,111.18,111.18,900
294,111.1801,111.19,111.1801,111.19,500
295,111.18,111.2059,111.18,111.2059,2183
296,111.16,111.18,111.16,111.18,1250
297,111.18,111.18,111.14,111.14,518
298,111.12,111.16,111.12,111.16,2500
299,111.11,111.11,111.11,111.11,500
300,111.17,111.18,111.13,111.13,1327
301,111.16,111.175,111.16,111.1701,1321
302,111.205,111.205,111.155,111.16,2200
304,111.22,111.22,111.205,111.2125,691
305,111.2,111.215,111.2,111.215,700
306,111.19,111.2,111.19,111.2,2515
309,111.2,111.2,111.18,111.19,1882
310,111.2,111.2,111.18,111.18,800
311,111.18,111.2,111.18,111.2,700
312,111.2,111.2,111.19,111.19,1073
313,111.2,111.2,111.19,111.195,900
315,111.2,111.21,111.2,111.2,3280
316,111.2,111.2,111.18,111.2,7366
317,111.205,111.21,111.2,111.205,2200
318,111.205,111.215,111.205,111.21,2646
319,111.205,111.21,111.2,111.2,2025
320,111.205,111.21,111.205,111.205,2200
321,111.2075,111.21,111.2,111.2,1416
322,111.2,111.2075,111.2,111.2075,900
323,111.2,111.21,111.2,111.2,8020
324,111.205,111.205,111.205,111.205,100
325,111.2,111.2,111.195,111.2,2095
326,111.195,111.2,111.19,111.2,1199
327,111.2,111.2,111.195,111.195,600
328,111.14,111.19,111.12,111.19,2700
329,111.13,111.13,111.11,111.12,2000
330,111.1021,111.125,111.1021,111.125,786
331,111.13,111.13,111.09,111.1,1900
332,111.14,111.14,111.13,111.14,892
333,111.15,111.15,111.15,111.15,600
334,111.16,111.16,111.15,111.15,1800
335,111.18,111.18,111.16,111.16,1300
336,111.2,111.23,111.175,111.2,4252
337,111.21,111.225,111.19,111.2,2830
338,111.21,111.2175,111.21,111.21,1000
339,111.2133,111.2133,111.2133,111.2133,119
340,111.21,111.22,111.2,111.22,5975
341,111.215,111.22,111.2,111.21,2006
342,111.215,111.22,111.215,111.215,2964
343,111.2075,111.22,111.2075,111.215,2600
344,111.2,111.205,111.2,111.2,2651
345,111.2,111.205,111.2,111.205,1400
346,111.17,111.21,111.17,111.21,9486
347,111.2,111.205,111.18,111.18,6834
348,111.18,111.2,111.17,111.2,3501
349,111.18,111.18,111.17,111.18,567
350,111.18,111.19,111.17,111.18,3623
351,111.17,111.185,111.17,111.185,2700
352,111.18,111.18,111.18,111.18,1422
353,111.125,111.18,111.125,111.18,4149
354,111.17,111.17,111.14,111.14,1184
355,111.165,111.17,111.16,111.17,1300
356,111.1775,111.18,111.13,111.16,11258
357,111.18,111.18,111.175,111.175,4058
358,111.14,111.18,111.14,111.1775,7757
359,111.165,111.165,111.14,111.14,1800
360,111.15,111.17,111.14,111.16,2400
361,111.16,111.17,111.145,111.145,3000
362,111.165,111.165,111.13,111.16,7943
363,111.15,111.16,111.15,111.16,400
364,111.14,111.15,111.125,111.15,3688
365,111.13,111.13,111.13,111.13,447
366,111.08,111.12,111.06,111.12,4957
367,111.08,111.08,111.08,111.08,600
368,111.06,111.07,111.06,111.07,1600
369,111.08,111.1,111.0675,111.07,3146
370,111.09,111.1,111.08,111.09,1688
371,111.07,111.09,111.06,111.085,2613
372,111.07,111.08,111.07,111.07,1300
373,111.1,111.1,111.07,111.07,300
374,111.08,111.08,111.06,111.07,4479
375,111.07,111.08,111.07,111.08,3525
376,111.075,111.09,111.06,111.08,3800
377,111.065,111.08,111.06,111.08,3029
378,111.04,111.07,111.04,111.065,3915
379,111.06,111.0675,111.04,111.04,10533
380,111.06,111.07,111.05,111.065,5749
381,111.07,111.07,111.06,111.065,4318
382,111.06,111.07,111.06,111.06,3200
383,111.065,111.07,111.06,111.06,6643
384,111.07,111.07,111.06,111.065,3507
385,111.065,111.07,111.06,111.0675,4976
386,111.07,111.07,111.06,111.06,4800
387,111.06,111.07,111.06,111.065,9603
388,111.05,111.0675,111.04,111.06,81410
389,111.04,111.06,111.03,111.05,16505
390,111.02,111.075,110.94,111.03,59675
