EOG,EOG Resources,Energy,3,Oil & Gas Exploration & Production,53044948591,3381009
a1497274200,91.5,91.5,91.18,91.26,33184
1,91.81,91.82,91.48,91.5,23227
2,91.925,91.98,91.68,91.68,17830
3,91.66,91.945,91.62,91.94,6938
4,91.86,91.86,91.72,91.74,6200
5,91.39,91.8995,91.39,91.88,17918
6,91.11,91.43,91.05,91.43,15790
7,91.19,91.4,91.05,91.105,28227
8,91.41,91.53,91.15,91.185,52672
9,91.485,91.57,91.33,91.34,9810
10,91.5,91.71,91.5,91.5,24360
11,91.1,91.48,91.065,91.48,21139
12,91.4,91.58,91.04,91.06,21767
13,91.28,91.4,91.2,91.4,9054
14,91.33,91.42,91.14,91.245,14208
15,91.46,91.6,91.31,91.335,19117
16,91.355,91.56,91.31,91.56,14392
17,91.52,91.67,91.31,91.35,26412
18,91.44,91.53,91.34,91.5025,12876
19,91.6,91.61,91.39,91.44,9346
20,91.4,91.65,91.38,91.54,21029
21,91.3,91.435,91.22,91.435,15823
22,91.52,91.57,91.255,91.255,17079
23,91.42,91.65,91.42,91.51,10709
24,91.21,91.42,91.21,91.42,14972
25,91.22,91.27,91.16,91.21,11190
26,91.2,91.36,91.19,91.31,7393
27,90.75,91.215,90.75,91.215,39607
28,91.09,91.145,90.72,90.75,31014
29,91.08,91.22,91,91.09,15400
30,91.1476,91.195,91.11,91.15,4140
31,91.03,91.21,90.99,91.08,11013
32,90.83,91.05,90.76,91.03,10600
33,90.79,90.89,90.74,90.85,10348
34,90.87,90.91,90.74,90.75,9988
35,90.94,90.975,90.8,90.835,10029
36,91.19,91.22,90.98,90.98,13855
37,91.14,91.28,91.03,91.24,13216
38,91.17,91.2,91.05,91.14,9755
39,91.08,91.2,91.08,91.14,5665
40,90.94,91.08,90.9,91.07,7772
41,90.94,91.0836,90.89,90.96,5529
42,90.9,91.11,90.89,90.94,23305
43,90.85,90.94,90.81,90.88,19563
44,90.84,90.92,90.81,90.88,24000
45,90.98,91.1,90.86,90.86,11519
46,91.1575,91.185,90.99,90.99,10588
47,91.145,91.25,91.1362,91.1362,6800
48,90.89,91.1595,90.89,91.1595,18829
49,91.07,91.08,90.86,90.89,17686
50,91.05,91.06,90.95,91.04,5732
51,91,91.17,90.98,91.08,8912
52,91.07,91.11,90.93,90.99,11880
53,90.96,91.065,90.89,91.05,9966
54,90.89,90.975,90.89,90.975,11600
55,90.9,90.9,90.82,90.9,22231
56,90.94,91.05,90.82,90.85,20669
57,90.94,90.98,90.9,90.93,8590
58,90.86,91.07,90.85,90.94,18652
59,90.84,90.86,90.75,90.85,6500
60,90.78,90.92,90.75,90.87,12795
61,90.646,90.77,90.64,90.77,9950
62,90.69,90.77,90.655,90.67,7577
63,90.72,90.73,90.64,90.69,5663
64,90.86,90.86,90.72,90.735,5800
65,90.74,90.91,90.71,90.87,6698
66,90.84,90.86,90.74,90.74,7368
67,90.66,90.82,90.66,90.81,8329
68,90.53,90.69,90.52,90.65,9396
69,90.37,90.59,90.37,90.58,6996
70,90.38,90.49,90.3,90.35,5688
71,90.4561,90.4978,90.42,90.425,5377
72,90.55,90.57,90.44,90.46,5462
73,90.33,90.55,90.33,90.54,3896
74,90.37,90.41,90.23,90.38,6700
75,90.4,90.47,90.33,90.4,15381
76,90.485,90.52,90.41,90.43,8699
77,90.46,90.52,90.43,90.49,9105
78,90.48,90.59,90.47,90.5,18884
79,90.445,90.54,90.42,90.52,12378
80,90.48,90.51,90.44,90.46,8877
81,90.485,90.51,90.43,90.4857,12701
82,90.46,90.5,90.42,90.475,9220
83,90.47,90.52,90.43,90.46,6729
84,90.63,90.63,90.52,90.52,7100
85,90.72,90.76,90.6,90.61,9844
86,90.77,90.77,90.69,90.74,9131
87,90.75,90.79,90.72,90.75,13980
88,90.77,90.81,90.74,90.7747,11908
89,90.71,90.77,90.66,90.77,10639
90,90.7,90.78,90.7,90.73,4181
91,90.81,90.865,90.74,90.7413,5313
92,90.87,90.87,90.73,90.81,10383
93,90.9,90.9,90.79,90.84,6514
94,90.875,90.9,90.81,90.88,6400
95,90.9548,90.96,90.89,90.89,3785
96,90.94,91.03,90.93,90.98,5646
97,90.9,90.95,90.89,90.94,3102
98,90.7798,90.905,90.76,90.9,13369
99,90.675,90.78,90.67,90.76,6264
100,90.48,90.68,90.4,90.675,18136
101,90.6532,90.66,90.52,90.53,5500
102,90.62,90.69,90.61,90.67,6300
103,90.54,90.62,90.54,90.62,11506
104,90.39,90.54,90.39,90.54,9201
105,90.39,90.46,90.39,90.46,2076
106,90.39,90.5,90.36,90.36,9574
107,90.3725,90.4,90.21,90.36,9832
108,90.3772,90.46,90.37,90.39,3213
109,90.26,90.37,90.24,90.35,5050
110,90.24,90.27,90.21,90.21,3886
111,90.19,90.29,90.19,90.2,6430
112,90.24,90.265,90.16,90.18,5378
113,90.32,90.32,90.19,90.22,3212
114,90.42,90.42,90.28,90.31,6650
115,90.4028,90.42,90.35,90.42,5919
116,90.3899,90.41,90.33,90.36,6044
117,90.45,90.5,90.3,90.3,4043
118,90.47,90.51,90.43,90.47,3900
119,90.5,90.525,90.48,90.49,3288
120,90.6,90.61,90.519,90.519,3451
121,90.65,90.67,90.57,90.57,3480
122,90.62,90.69,90.57,90.69,6814
123,90.67,90.67,90.56,90.6,4638
124,90.63,90.695,90.61,90.68,3770
125,90.6,90.6225,90.5,90.61,5300
126,90.44,90.6,90.42,90.59,8227
127,90.415,90.44,90.41,90.41,1700
128,90.45,90.45,90.3987,90.415,2300
129,90.435,90.435,90.429,90.435,797
130,90.57,90.57,90.46,90.46,5598
131,90.57,90.58,90.55,90.56,1100
132,90.5,90.57,90.42,90.57,8836
133,90.58,90.59,90.505,90.505,3641
134,90.655,90.69,90.6,90.61,3700
135,90.54,90.65,90.54,90.65,2516
136,90.73,90.73,90.56,90.56,4876
137,90.745,90.79,90.73,90.73,4466
138,90.8,90.83,90.7527,90.7527,3251
139,90.8894,90.8894,90.79,90.79,3487
140,90.835,90.8699,90.82,90.84,3297
141,90.81,90.875,90.8,90.82,4260
142,90.8825,90.895,90.83,90.83,3770
143,90.86,90.9,90.846,90.875,1850
144,90.85,90.89,90.84,90.865,2800
145,90.905,90.93,90.86,90.86,2124
146,91.03,91.0625,90.905,90.905,7866
147,90.93,91.025,90.93,91,5063
148,90.85,90.96,90.85,90.94,2950
149,90.89,90.94,90.84,90.84,2900
150,90.835,90.88,90.81,90.87,3700
151,90.89,90.9,90.82,90.82,4290
152,90.87,90.87,90.83,90.84,5000
153,90.8,90.85,90.74,90.85,5307
154,90.81,90.85,90.77,90.79,1923
155,90.78,90.81,90.78,90.81,1100
156,90.7825,90.8,90.76,90.76,2100
157,90.79,90.8,90.75,90.78,4113
158,90.76,90.79,90.75,90.77,2300
159,90.67,90.74,90.66,90.74,5230
160,90.604,90.69,90.58,90.67,4783
161,90.52,90.59,90.51,90.58,7001
162,90.58,90.595,90.5,90.51,6263
163,90.58,90.595,90.51,90.575,3413
164,90.59,90.62,90.56,90.59,4329
165,90.545,90.615,90.545,90.61,3597
166,90.5025,90.54,90.49,90.54,2850
167,90.54,90.54,90.45,90.47,5244
168,90.575,90.575,90.56,90.56,997
169,90.61,90.61,90.59,90.61,2124
170,90.64,90.655,90.595,90.61,5388
171,90.61,90.64,90.61,90.64,800
172,90.74,90.75,90.63,90.63,4542
173,90.69,90.735,90.66,90.71,3350
174,90.73,90.73,90.65,90.67,4982
175,90.69,90.77,90.69,90.74,3816
176,90.73,90.73,90.67,90.67,2801
177,90.685,90.77,90.67,90.74,3999
178,90.63,90.68,90.63,90.66,1848
179,90.65,90.66,90.635,90.65,1605
180,90.58,90.675,90.58,90.675,5700
181,90.57,90.64,90.54,90.6399,4048
182,90.62,90.62,90.56,90.59,2300
183,90.53,90.607,90.53,90.607,2800
184,90.53,90.55,90.5239,90.5239,1822
185,90.64,90.64,90.54,90.54,1400
186,90.59,90.6471,90.58,90.63,3600
187,90.6,90.61,90.57,90.58,3300
188,90.505,90.59,90.49,90.59,4597
189,90.47,90.505,90.43,90.505,6816
190,90.475,90.48,90.4634,90.475,1011
191,90.49,90.51,90.48,90.5,2200
192,90.515,90.539,90.5,90.51,2581
193,90.39,90.57,90.36,90.54,7465
194,90.42,90.435,90.39,90.42,2200
195,90.43,90.43,90.405,90.43,1822
196,90.43,90.43,90.387,90.387,550
197,90.37,90.41,90.35,90.38,3600
198,90.36,90.37,90.34,90.35,600
199,90.28,90.38,90.28,90.37,3929
200,90.25,90.28,90.22,90.27,3801
201,90.25,90.25,90.22,90.2428,1256
202,90.27,90.3,90.21,90.25,6849
203,90.27,90.27,90.25,90.265,491
204,90.26,90.29,90.24,90.25,2400
205,90.28,90.29,90.19,90.26,5910
206,90.3,90.3,90.26,90.26,1700
207,90.36,90.36,90.3,90.33,3500
208,90.322,90.399,90.32,90.37,4613
209,90.34,90.34,90.26,90.31,3200
210,90.23,90.3,90.23,90.3,2210
211,90.33,90.33,90.2575,90.26,2304
212,90.4,90.44,90.35,90.35,2625
213,90.295,90.405,90.27,90.39,4824
214,90.33,90.36,90.32,90.33,2100
215,90.38,90.45,90.36,90.36,4450
216,90.49,90.49,90.35,90.35,10209
217,90.52,90.52,90.49,90.49,2010
218,90.49,90.59,90.48,90.55,4290
219,90.53,90.53,90.45,90.46,4708
220,90.5,90.58,90.5,90.55,2829
221,90.48,90.52,90.46,90.52,1454
222,90.6,90.6,90.44,90.4562,7565
223,90.54,90.62,90.52,90.6,8682
224,90.53,90.576,90.53,90.54,4066
225,90.54,90.56,90.52,90.53,2400
226,90.61,90.68,90.55,90.55,3340
227,90.6,90.645,90.6,90.62,3200
228,90.605,90.62,90.54,90.58,3830
229,90.63,90.65,90.6,90.63,3822
230,90.63,90.66,90.61,90.64,13519
231,90.55,90.64,90.55,90.64,5428
232,90.53,90.58,90.53,90.57,2100
233,90.49,90.56,90.49,90.52,5558
234,90.51,90.53,90.46,90.49,5493
235,90.54,90.54,90.5069,90.5069,1900
236,90.56,90.57,90.5378,90.56,4484
237,90.6,90.6,90.5675,90.57,1588
238,90.55,90.64,90.55,90.61,8400
239,90.63,90.64,90.56,90.56,7398
240,90.65,90.65,90.6,90.6,2141
241,90.64,90.66,90.63,90.64,1800
242,90.7,90.7,90.65,90.65,2200
243,90.79,90.814,90.7,90.7,10736
244,90.84,90.85,90.78,90.781,4639
245,90.86,90.86,90.81,90.8358,3971
246,90.83,90.89,90.82,90.86,10054
247,90.675,90.82,90.67,90.81,15776
248,90.61,90.66,90.58,90.66,5778
249,90.645,90.65,90.63,90.63,1000
250,90.655,90.6639,90.64,90.65,7806
251,90.6,90.69,90.6,90.655,6205
252,90.57,90.595,90.55,90.59,2178
253,90.63,90.63,90.59,90.59,2900
254,90.58,90.6653,90.58,90.64,7710
255,90.61,90.63,90.56,90.56,2702
256,90.5,90.61,90.5,90.61,4206
257,90.53,90.53,90.44,90.47,4078
258,90.58,90.58,90.52,90.54,1100
259,90.54,90.58,90.54,90.57,3000
260,90.57,90.59,90.56,90.58,2200
261,90.51,90.57,90.51,90.56,3286
262,90.46,90.505,90.46,90.49,3593
263,90.49,90.5,90.44,90.46,5805
264,90.51,90.51,90.49,90.49,900
265,90.56,90.56,90.53,90.54,1900
266,90.42,90.58,90.42,90.58,4300
267,90.4,90.42,90.39,90.4,1587
268,90.46,90.465,90.4,90.4,2700
269,90.45,90.455,90.43,90.45,1747
270,90.41,90.44,90.35,90.44,5696
271,90.38,90.42,90.38,90.4,3774
272,90.29,90.36,90.23,90.36,5222
273,90.27,90.3,90.24,90.295,3790
274,90.27,90.28,90.25,90.27,4400
275,90.185,90.28,90.14,90.27,18201
276,90.15,90.21,90.15,90.2,4593
277,90.165,90.165,90.07,90.14,6661
278,90.14,90.17,90.14,90.17,1300
279,90.12,90.17,90.12,90.16,5580
280,90.14,90.14,90.13,90.13,4756
281,90.08,90.1658,90.07,90.15,10555
282,90.11,90.11,90.07,90.08,4650
283,90.03,90.09,90.03,90.09,7358
284,90.04,90.04,90.025,90.03,4696
285,90.01,90.04,90,90.03,8661
286,89.89,90.02,89.88,90.02,10864
287,89.93,89.95,89.88,89.89,8888
288,89.91,89.93,89.89,89.93,8960
289,89.93,89.95,89.9,89.91,4089
290,89.9372,89.97,89.9372,89.94,4206
291,89.85,89.99,89.84,89.97,7924
292,89.88,89.88,89.81,89.85,8135
293,89.87,89.93,89.86,89.885,6270
294,89.9,89.9168,89.84,89.85,5751
295,89.95,89.95,89.87,89.91,3357
296,89.905,89.98,89.9,89.98,3426
297,89.76,89.89,89.76,89.89,8342
298,89.68,89.76,89.68,89.76,6007
299,89.76,89.78,89.69,89.69,5960
300,89.83,89.83,89.735,89.7538,9879
301,89.83,89.88,89.83,89.83,4344
302,89.82,89.87,89.82,89.8323,2703
303,89.73,89.85,89.71,89.84,12837
304,89.68,89.73,89.67,89.73,13983
305,89.73,89.76,89.68,89.69,11272
306,89.79,89.79,89.71,89.73,3764
307,89.715,89.78,89.71,89.78,4870
308,89.55,89.73,89.55,89.73,17879
309,89.57,89.6,89.51,89.565,20148
310,89.58,89.6,89.53,89.56,9238
311,89.7323,89.77,89.59,89.6,9928
312,89.73,89.7901,89.73,89.74,12331
313,89.65,89.73,89.64,89.715,4865
314,89.715,89.73,89.645,89.65,6006
315,89.68,89.76,89.68,89.7,5105
316,89.72,89.72,89.66,89.67,5080
317,89.74,89.74,89.7,89.73,5025
318,89.655,89.75,89.655,89.74,7025
319,89.678,89.78,89.64,89.66,10247
320,89.71,89.77,89.679,89.679,7490
321,89.745,89.76,89.7,89.71,12629
322,89.7501,89.78,89.68,89.73,9616
323,89.81,89.84,89.73,89.75,6300
324,89.88,89.88,89.84,89.84,13930
325,89.9,89.91,89.87,89.87,5670
326,89.8,89.905,89.8,89.9,4904
327,89.815,89.86,89.81,89.83,6265
328,89.9,89.9,89.83,89.83,6850
329,89.89,89.92,89.87,89.905,3100
330,89.93,89.93,89.89,89.92,4800
331,89.99,90.02,89.915,89.915,7775
332,89.94,90.01,89.94,89.99,3900
333,89.92,89.93,89.8801,89.93,3602
334,89.93,89.99,89.91,89.93,6850
335,89.95,89.9625,89.93,89.94,5493
336,90,90.025,89.96,89.96,4960
337,90.04,90.1,90.01,90.01,5501
338,90.055,90.0699,90,90.0699,6135
339,90.09,90.1,90.06,90.06,4000
340,90.09,90.09,90.06,90.08,8541
341,90.17,90.185,90.09,90.09,8677
342,90.14,90.2,90.14,90.17,5471
343,90.17,90.22,90.13,90.13,8012
344,90.2,90.21,90.165,90.18,6600
345,90.28,90.32,90.202,90.21,8886
346,90.33,90.35,90.25,90.25,5749
347,90.39,90.41,90.32,90.32,7720
348,90.34,90.41,90.33,90.39,12732
349,90.26,90.35,90.26,90.34,8100
350,90.4,90.4,90.27,90.27,7350
351,90.45,90.45,90.4,90.41,8206
352,90.415,90.48,90.4,90.45,18165
353,90.27,90.42,90.27,90.4,19799
354,90.285,90.31,90.27,90.27,11206
355,90.205,90.29,90.19,90.29,12665
356,90.05,90.195,90.05,90.195,34818
357,90.07,90.12,90.06,90.06,12785
358,90.11,90.12,90.07,90.07,5710
359,90,90.1,90,90.1,7244
360,90.05,90.09,90.01,90.01,6911
361,90.11,90.13,90.06,90.06,9627
362,90.11,90.13,90.105,90.11,6400
363,90.1,90.14,90.07,90.11,9785
364,89.955,90.09,89.95,90.09,10206
365,90.055,90.08,89.98,89.98,5509
366,90.06,90.07,90.041,90.055,6528
367,90.06,90.105,89.99,90.07,35773
368,89.89,90.04,89.87,90.04,11420
369,89.89,89.93,89.84,89.9,10576
370,89.8517,89.91,89.81,89.89,9243
371,89.72,89.84,89.72,89.84,9969
372,89.74,89.82,89.695,89.71,16236
373,89.7,89.75,89.69,89.74,10263
374,89.81,89.81,89.69,89.71,6750
375,89.7,89.825,89.68,89.825,19124
376,89.67,89.775,89.65,89.68,17092
377,89.71,89.78,89.67,89.67,10942
378,89.755,89.83,89.705,89.71,16588
379,89.83,89.83,89.75,89.75,9997
380,89.75,89.81,89.73,89.81,21127
381,89.78,89.81,89.75,89.77,13473
382,89.825,89.83,89.75,89.78,14398
383,89.81,89.83,89.79,89.82,16056
384,89.79,89.86,89.79,89.82,15640
385,89.82,89.86,89.78,89.8,17525
386,89.81,89.84,89.77,89.83,23020
387,89.89,89.895,89.78,89.81,19067
388,89.905,89.91,89.88,89.89,23123
389,89.84,89.92,89.83,89.91,21303
390,89.905,89.94,89.83,89.84,93614
