EOG,EOG Resources,Energy,3,Oil & Gas Exploration & Production,50736193248,3378855
a1498224600,87.61,87.61,87.61,87.61,25049
1,87.79,87.83,87.65,87.6601,8989
2,87.68,87.9,87.67,87.76,4235
3,87.42,87.66,87.4,87.66,1420
4,87.53,87.545,87.43,87.54,2330
5,87.57,87.72,87.54,87.57,6500
6,87.545,87.64,87.52,87.5601,2856
7,87.43,87.545,87.35,87.545,6544
8,87.5,87.62,87.45,87.45,5235
9,87.63,87.69,87.5,87.53,13719
10,87.57,87.7099,87.57,87.66,10318
11,87.64,87.71,87.58,87.6,20000
12,87.665,87.69,87.64,87.67,6400
13,87.76,87.76,87.66,87.67,5794
14,87.76,87.76,87.71,87.725,6200
15,87.84,87.85,87.7675,87.79,3200
16,87.82,87.82,87.74,87.77,2434
17,87.95,87.95,87.82,87.82,3200
18,87.95,87.99,87.87,87.95,5070
19,87.9901,88.04,87.942,87.95,7422
20,88.09,88.1347,88,88.04,4197
21,88.12,88.12,88.06,88.08,4100
22,88,88.11,88,88.11,8367
23,87.97,88,87.9,88,5400
24,87.96,88,87.94,87.97,22850
25,87.92,87.96,87.92,87.96,2400
26,87.93,87.95,87.91,87.93,3598
27,87.945,87.965,87.92,87.945,10601
28,87.955,87.99,87.94,87.96,11358
29,88,88.02,87.92,87.94,27150
30,88.2,88.23,88,88.01,18390
31,88.07,88.23,87.99,88.22,19114
32,88.02,88.105,87.96,88.105,21315
33,88,88.02,87.97,88,4500
34,87.955,88.015,87.93,87.98,14618
35,87.84,87.97,87.82,87.96,14119
36,87.85,87.87,87.77,87.86,18706
37,87.81,87.87,87.79,87.86,5100
38,87.72,87.785,87.71,87.78,5448
39,87.69,87.75,87.68,87.72,9350
40,87.77,87.8254,87.74,87.74,3711
41,87.81,87.91,87.79,87.79,4907
42,87.72,87.81,87.72,87.81,19036
43,87.83,87.9,87.73,87.75,12752
44,87.89,87.915,87.83,87.86,2700
45,88.03,88.0558,87.92,87.93,2800
46,87.9623,88.005,87.9,88.005,5313
47,87.83,88,87.83,87.98,34179
48,87.76,87.87,87.73,87.835,22687
49,87.77,87.77,87.71,87.75,2543
50,87.79,87.8,87.74,87.79,1700
51,87.76,87.8,87.76,87.7734,3345
52,87.81,87.82,87.76,87.76,8500
53,87.74,87.8,87.72,87.79,5915
54,87.75,87.75,87.72,87.73,2100
55,87.85,87.85,87.74,87.75,4000
56,87.89,87.89,87.82,87.85,2676
57,87.83,87.85,87.76,87.84,6820
58,87.8,87.875,87.76,87.85,2494
59,87.79,87.82,87.79,87.82,8600
60,87.88,87.88,87.79,87.8,8350
61,87.93,87.99,87.89,87.9,4513
62,88.04,88.04,87.94,87.96,3900
63,88,88.05,87.98,88.04,3350
64,87.93,88.02,87.86,87.98,4700
65,88.0255,88.08,87.948,87.97,8506
66,87.94,88.04,87.88,88.02,12300
67,87.95,87.99,87.88,87.96,9286
68,88,88.02,87.96,87.99,8500
69,87.97,87.99,87.95,87.99,3656
70,87.94,87.975,87.89,87.97,5400
71,87.95,87.95,87.9,87.91,2000
72,87.96,88.02,87.96,87.975,9595
73,87.9,87.96,87.9,87.95,7147
74,87.98,87.98,87.9,87.93,2600
75,88.01,88.02,87.97,87.98,3980
76,88.109,88.12,88.044,88.05,5080
77,88.09,88.11,88.09,88.09,1000
78,88.01,88.08,87.97,88.08,7600
79,87.99,88.04,87.96,88.02,3411
80,87.89,88,87.89,87.98,9810
81,87.87,87.95,87.84,87.91,21797
82,87.99,87.99,87.87,87.91,3524
83,88.06,88.09,87.98,87.99,2900
84,88,88.07,87.98,88.04,3100
85,88.005,88.02,87.98,87.99,7564
86,88,88.05,88,88.01,4491
87,88.08,88.1,88.05,88.05,3678
88,88,88.09,88,88.08,3583
89,87.99,88.03,87.99,88.01,1400
90,88.075,88.083,87.98,88.015,12317
91,88.09,88.14,88.06,88.1,5862
92,88.11,88.19,88.11,88.11,3600
93,88.09,88.14,88.09,88.13,800
94,88.115,88.13,88.11,88.11,1800
95,88.12,88.13,88.115,88.115,1000
96,88.16,88.17,88.11,88.12,5400
97,88.095,88.15,88.0825,88.13,4198
98,88.114,88.18,88.11,88.12,2500
99,88.09,88.11,88.08,88.09,1500
100,88.16,88.16,88.08,88.085,3995
101,88.16,88.17,88.12,88.145,4140
102,88.07,88.11,88.05,88.11,3100
103,88.12,88.12,88.03,88.07,4550
104,88.05,88.12,88.03,88.1197,2587
105,88.07,88.11,88.05,88.05,3100
106,88.09,88.1,88.07,88.0899,4301
107,88.16,88.16,88.07,88.09,3685
108,88.12,88.155,88.115,88.155,5276
109,88.17,88.18,88.11,88.14,5700
110,88.0824,88.19,88.0776,88.16,15258
111,88.06,88.19,88.02,88.1,31651
112,88.08,88.1,88.07,88.08,15410
113,88.06,88.1,88.06,88.1,2500
114,88.08,88.1,88.06,88.06,11600
115,87.98,88.09,87.95,88.09,3769
116,88.03,88.07,87.98,88,3316
117,87.9683,88.025,87.92,88,2400
118,87.9,87.97,87.9,87.96,1100
119,87.93,88.015,87.92,87.94,4082
120,87.93,87.95,87.9,87.95,900
121,87.94,87.94,87.89,87.92,2600
122,87.96,88.04,87.96,87.96,3266
123,87.95,87.955,87.9,87.95,2300
124,87.97,87.98,87.97,87.97,600
125,88.03,88.03,87.96,87.96,1455
126,87.93,87.95,87.92,87.94,2244
127,87.9501,88.03,87.95,87.96,4230
128,87.88,87.97,87.88,87.9646,1900
129,87.97,87.98,87.88,87.88,1900
130,87.96,87.98,87.95,87.96,800
131,87.94,88,87.9197,87.96,2634
132,87.98,87.99,87.94,87.95,2669
133,87.98,87.98,87.94,87.97,2550
134,87.96,87.99,87.96,87.97,700
135,87.99,88.01,87.975,87.98,1300
136,88.03,88.08,88,88,6574
137,88.01,88.02,88.01,88.02,321
138,88.0155,88.0155,87.98,87.98,636
139,87.98,88,87.95,87.98,3000
140,87.96,87.97,87.96,87.96,400
141,87.99,88,87.96,87.97,2400
142,88.08,88.1,87.99,88,7448
143,88.15,88.16,88.08,88.085,10924
144,88.14,88.2,88.09,88.19,12923
145,88.17,88.19,88.08,88.11,11192
146,88.1,88.18,88.08,88.15,3900
147,88.07,88.13,88.07,88.12,5039
148,88.01,88.09,88,88.05,17751
149,88.01,88.07,87.99,88,3154
150,88,88.05,87.99,88.04,2500
151,88.02,88.04,88.01,88.02,2735
152,87.99,88.06,87.99,88.03,2307
153,87.99,88.02,87.94,88.02,5561
154,87.98,88.01,87.98,88.01,2900
155,87.99,88.03,87.99,87.99,2984
156,87.98,87.99,87.97,87.98,1294
157,87.97,87.99,87.97,87.98,1055
158,87.93,88,87.92,87.97,1750
159,87.94,87.97,87.9,87.94,4934
160,87.88,87.93,87.86,87.93,4911
161,87.9,87.9097,87.88,87.9,2100
162,87.88,87.92,87.87,87.9,3229
163,87.91,87.98,87.91,87.92,1300
164,87.91,87.93,87.91,87.93,1000
165,87.85,87.9,87.85,87.9,2111
166,87.8675,87.8675,87.82,87.83,2800
167,87.86,87.86,87.83,87.84,2933
168,87.8802,87.93,87.81,87.85,10390
169,87.85,87.86,87.8201,87.86,3200
170,87.83,87.84,87.8,87.83,3855
171,87.83,87.85,87.82,87.85,2800
172,87.68,87.8,87.67,87.8,4468
173,87.65,87.7,87.65,87.67,1850
174,87.68,87.71,87.66,87.66,2100
175,87.68,87.7,87.68,87.69,700
176,87.62,87.67,87.6,87.67,3600
177,87.67,87.68,87.645,87.6599,2620
178,87.64,87.64,87.6,87.63,1700
179,87.66,87.67,87.65,87.67,2335
180,87.65,87.65,87.62,87.64,1113
181,87.58,87.62,87.58,87.61,3100
182,87.59,87.6398,87.57,87.6,5111
183,87.59,87.605,87.59,87.6,1000
184,87.55,87.62,87.55,87.58,3455
185,87.61,87.61,87.55,87.55,4509
186,87.58,87.6,87.56,87.6,2546
187,87.54,87.57,87.54,87.57,1800
188,87.53,87.54,87.49,87.52,6850
189,87.45,87.51,87.45,87.51,2607
190,87.47,87.48,87.45,87.46,2100
191,87.47,87.49,87.44,87.48,2566
192,87.49,87.52,87.47,87.47,4882
193,87.5,87.515,87.49,87.49,2756
194,87.49,87.49,87.46,87.49,2900
195,87.49,87.5,87.46,87.48,2000
196,87.475,87.48,87.45,87.47,1900
197,87.4,87.51,87.4,87.5,3869
198,87.45,87.45,87.39,87.42,3172
199,87.44,87.45,87.44,87.45,500
200,87.42,87.45,87.42,87.45,3208
201,87.35,87.43,87.35,87.43,6100
202,87.47,87.48,87.35,87.36,3372
203,87.42,87.47,87.4,87.47,1239
204,87.44,87.44,87.44,87.44,100
205,87.36,87.41,87.36,87.41,900
206,87.37,87.39,87.37,87.39,1250
207,87.42,87.43,87.38,87.38,3500
208,87.45,87.46,87.42,87.43,6100
209,87.44,87.44,87.42,87.44,1900
210,87.41,87.45,87.41,87.45,800
211,87.4,87.41,87.37,87.4,2700
212,87.2701,87.36,87.27,87.36,2800
213,87.21,87.31,87.21,87.3,4100
214,87.32,87.32,87.22,87.23,5700
215,87.32,87.32,87.29,87.31,1600
216,87.42,87.44,87.35,87.35,3100
217,87.3,87.42,87.285,87.4,3200
218,87.29,87.33,87.29,87.3,900
219,87.36,87.36,87.28,87.31,6700
220,87.3,87.34,87.2939,87.34,1800
221,87.34,87.37,87.295,87.295,4000
222,87.3,87.355,87.26,87.34,4200
223,87.28,87.31,87.251,87.31,2996
224,87.35,87.39,87.2875,87.305,3340
225,87.36,87.4025,87.36,87.39,3200
226,87.33,87.39,87.33,87.36,3650
227,87.31,87.35,87.31,87.31,3412
228,87.32,87.33,87.32,87.3227,4075
229,87.31,87.34,87.3,87.34,400
230,87.4,87.4,87.34,87.34,5500
231,87.406,87.406,87.37,87.38,1695
232,87.44,87.45,87.38,87.4,4274
233,87.4,87.4471,87.4,87.4471,2129
234,87.38,87.39,87.38,87.39,700
235,87.44,87.44,87.38,87.38,4111
236,87.42,87.42,87.42,87.42,301
237,87.39,87.46,87.34,87.43,7500
238,87.4197,87.43,87.37,87.38,2573
239,87.46,87.49,87.42,87.42,2600
240,87.42,87.4648,87.42,87.4648,1344
241,87.42,87.42,87.37,87.4,5079
242,87.46,87.48,87.42,87.43,2200
243,87.43,87.46,87.41,87.45,4285
244,87.44,87.44,87.42,87.42,2041
245,87.4,87.42,87.39,87.42,1274
246,87.41,87.45,87.39,87.39,2150
247,87.41,87.4358,87.4,87.42,4023
248,87.43,87.44,87.42,87.42,1999
249,87.44,87.44,87.41,87.41,1100
250,87.3,87.44,87.3,87.44,4308
251,87.38,87.38,87.28,87.3,5650
252,87.37,87.39,87.335,87.38,2400
253,87.4,87.42,87.35,87.35,2800
254,87.37,87.41,87.35,87.41,3379
255,87.45,87.46,87.38,87.38,2420
256,87.39,87.44,87.39,87.44,1500
257,87.4,87.43,87.36,87.38,4300
258,87.38,87.41,87.37,87.41,1308
259,87.45,87.45,87.38,87.39,3200
260,87.46,87.46,87.42,87.45,2000
261,87.45,87.46,87.43,87.46,2000
262,87.49,87.52,87.45,87.45,3120
263,87.58,87.62,87.45,87.48,6905
264,87.56,87.57,87.54,87.57,1700
265,87.57,87.57,87.5,87.54,2700
266,87.5,87.56,87.5,87.56,1800
267,87.46,87.53,87.42,87.49,2500
268,87.54,87.55,87.46,87.46,4050
269,87.5,87.54,87.5,87.54,3600
270,87.54,87.56,87.52,87.52,3700
271,87.54,87.57,87.5,87.54,4165
272,87.48,87.55,87.46,87.54,3421
273,87.53,87.53,87.44,87.46,2742
274,87.45,87.54,87.45,87.54,3525
275,87.52,87.54,87.47,87.48,3879
276,87.51,87.53,87.5,87.51,3893
277,87.5,87.53,87.49,87.52,1030
278,87.5016,87.52,87.49,87.5,4125
279,87.55,87.55,87.53,87.53,3420
280,87.58,87.58,87.51,87.54,8392
281,87.56,87.59,87.56,87.56,300
282,87.53,87.58,87.51,87.58,4662
283,87.57,87.57,87.52,87.53,3058
284,87.535,87.57,87.51,87.57,2000
285,87.61,87.61,87.535,87.535,1980
286,87.61,87.62,87.55,87.59,3786
287,87.55,87.61,87.55,87.61,2310
288,87.6,87.62,87.54,87.54,7738
289,87.58,87.62,87.58,87.61,7691
290,87.67,87.67,87.607,87.62,4382
291,87.6737,87.6737,87.6219,87.66,1462
292,87.64,87.6862,87.635,87.65,6094
293,87.58,87.63,87.58,87.62,2700
294,87.59,87.59,87.54,87.54,4544
295,87.6,87.6,87.56,87.6,800
296,87.55,87.56,87.53,87.56,1700
297,87.56,87.56,87.54,87.55,1479
298,87.66,87.66,87.57,87.57,6284
299,87.63,87.6469,87.6,87.6469,1700
300,87.6,87.63,87.6,87.62,1100
301,87.63,87.67,87.61,87.62,3500
302,87.6,87.66,87.6,87.64,1500
303,87.63,87.65,87.61,87.62,2851
304,87.59,87.62,87.59,87.62,1103
305,87.64,87.65,87.5914,87.5914,3211
306,87.64,87.65,87.64,87.65,2900
307,87.57,87.635,87.57,87.635,1150
308,87.56,87.59,87.56,87.56,1400
309,87.54,87.56,87.53,87.54,2900
310,87.54,87.57,87.54,87.54,6551
311,87.5,87.51,87.48,87.5,2654
312,87.53,87.53,87.52,87.52,1300
313,87.54,87.56,87.5,87.54,8571
314,87.55,87.55,87.52,87.55,3050
315,87.53,87.5616,87.53,87.53,2673
316,87.54,87.54,87.51,87.52,6647
317,87.5,87.55,87.5,87.5358,3735
318,87.44,87.49,87.44,87.49,1100
319,87.45,87.46,87.42,87.44,2100
320,87.43,87.45,87.4,87.45,4424
321,87.46,87.46,87.4441,87.4499,2055
322,87.49,87.49,87.44,87.44,4800
323,87.5,87.5,87.48,87.49,3536
324,87.5,87.52,87.48,87.5,10085
325,87.44,87.495,87.44,87.495,2200
326,87.5,87.5,87.41,87.44,5861
327,87.55,87.55,87.49,87.49,8719
328,87.4925,87.54,87.485,87.53,5069
329,87.5,87.5,87.482,87.5,1374
330,87.48,87.51,87.48,87.5,3100
331,87.48,87.48,87.46,87.47,6123
332,87.54,87.54,87.45,87.48,4812
333,87.55,87.55,87.5,87.55,9805
334,87.51,87.55,87.49,87.54,5262
335,87.54,87.54,87.48,87.51,3221
336,87.51,87.55,87.49,87.55,7330
337,87.59,87.591,87.48,87.48,3849
338,87.61,87.61,87.58,87.6,2758
339,87.65,87.655,87.61,87.61,6784
340,87.67,87.69,87.64,87.66,4650
341,87.71,87.71,87.67,87.67,2087
342,87.71,87.72,87.68,87.7,3243
343,87.725,87.7299,87.7101,87.7129,1040
344,87.74,87.74,87.71,87.7261,3551
345,87.74,87.75,87.72,87.75,3800
346,87.69,87.74,87.69,87.74,3000
347,87.6901,87.7,87.67,87.68,2500
348,87.68,87.6901,87.66,87.6901,4238
349,87.63,87.675,87.63,87.67,3615
350,87.64,87.68,87.63,87.63,5441
351,87.7175,87.73,87.66,87.66,4692
352,87.72,87.72,87.6932,87.7,2090
353,87.7,87.73,87.7,87.73,3716
354,87.71,87.71,87.7,87.71,800
355,87.73,87.74,87.69,87.71,9150
356,87.75,87.75,87.71,87.73,4789
357,87.7,87.75,87.7,87.75,2750
358,87.68,87.71,87.68,87.7,3697
359,87.66,87.69,87.65,87.69,3960
360,87.64,87.65,87.63,87.64,2925
361,87.66,87.67,87.65,87.65,4276
362,87.7,87.705,87.67,87.68,10310
363,87.73,87.73,87.69,87.69,2498
364,87.77,87.77,87.73,87.73,4495
365,87.82,87.83,87.78,87.78,3123
366,87.81,87.82,87.76,87.82,15463
367,87.87,87.89,87.8,87.82,7399
368,87.82,87.87,87.81,87.86,5000
369,87.81,87.835,87.8,87.83,6768
370,87.74,87.81,87.74,87.81,5928
371,87.7,87.74,87.7,87.74,7700
372,87.67,87.71,87.66,87.71,17850
373,87.65,87.71,87.64,87.67,21435
374,87.63,87.66,87.62,87.63,9105
375,87.63,87.665,87.62,87.64,26612
376,87.69,87.69,87.62,87.63,13412
377,87.77,87.77,87.69,87.7,6067
378,87.84,87.84,87.77,87.77,8043
379,87.91,87.91,87.83,87.83,7230
380,87.95,87.99,87.9,87.91,12880
381,87.88,87.955,87.86,87.95,16510
382,87.83,87.89,87.83,87.88,6759
383,87.88,87.88,87.83,87.83,22843
384,87.9,87.9,87.86,87.88,17078
385,87.93,87.93,87.9,87.91,16852
386,87.935,87.96,87.9,87.92,23053
387,87.88,87.94,87.87,87.93,22807
388,87.92,87.929,87.87,87.87,24693
389,87.93,87.95,87.89,87.91,36379
390,87.8,87.96,87.8,87.92,164924
