PPG,PPG Industries,Materials,8,Specialty Chemicals,28384079768,1219293
a1498224600,110.5,110.5,110.5,110.5,8612
1,110.71,110.74,110.66,110.73,2950
2,110.41,110.45,110.41,110.45,300
3,110.42,110.43,110.42,110.43,400
6,110.59,110.59,110.45,110.45,1175
7,110.45,110.57,110.44,110.45,6276
8,110.34,110.36,110.33,110.36,500
9,110.44,110.52,110.41,110.43,1500
10,110.49,110.53,110.45,110.45,2339
11,110.56,110.58,110.528,110.528,1560
12,110.53,110.53,110.53,110.53,200
13,110.55,110.55,110.5,110.52,700
15,110.48,110.48,110.48,110.48,178
16,110.52,110.55,110.48,110.48,1500
17,110.56,110.56,110.51,110.51,700
18,110.56,110.56,110.55,110.55,600
19,110.625,110.625,110.55,110.55,1184
20,110.67,110.71,110.64,110.64,2400
21,110.699,110.71,110.63,110.63,1900
22,110.685,110.73,110.685,110.73,300
23,110.6,110.64,110.6,110.64,400
24,110.5545,110.5545,110.5545,110.5545,170
25,110.59,110.59,110.59,110.59,200
26,110.545,110.58,110.545,110.58,300
27,110.51,110.51,110.51,110.51,100
28,110.55,110.55,110.55,110.55,1200
30,110.58,110.59,110.57,110.57,726
31,110.565,110.565,110.56,110.56,400
32,110.56,110.56,110.56,110.56,100
33,110.59,110.615,110.59,110.59,700
34,110.645,110.645,110.595,110.595,1100
35,110.6,110.64,110.59,110.64,1709
36,110.58,110.58,110.58,110.58,200
37,110.6,110.61,110.52,110.56,1500
38,110.6,110.61,110.58,110.58,3300
39,110.62,110.63,110.6,110.6,1400
40,110.67,110.7,110.6293,110.65,1925
41,110.67,110.67,110.67,110.67,300
42,110.6572,110.6572,110.6572,110.6572,285
43,110.63,110.66,110.63,110.64,548
44,110.6,110.62,110.6,110.62,300
45,110.58,110.58,110.58,110.58,100
46,110.64,110.64,110.63,110.63,1100
47,110.57,110.64,110.57,110.62,700
48,110.57,110.6,110.57,110.57,300
50,110.615,110.63,110.59,110.59,1600
52,110.66,110.66,110.645,110.645,400
53,110.64,110.65,110.64,110.65,944
55,110.655,110.66,110.655,110.66,500
56,110.675,110.675,110.67,110.67,300
57,110.66,110.66,110.66,110.66,400
59,110.63,110.645,110.63,110.645,300
61,110.67,110.67,110.63,110.63,2000
62,110.72,110.74,110.675,110.675,6235
63,110.81,110.81,110.73,110.73,5806
64,110.83,110.85,110.82,110.82,1200
65,110.865,110.865,110.865,110.865,300
66,110.83,110.83,110.83,110.83,300
67,110.82,110.82,110.81,110.82,600
68,110.83,110.83,110.8,110.8,700
69,110.849,110.85,110.84,110.85,300
71,110.86,110.86,110.82,110.82,700
72,110.9,110.9,110.865,110.865,900
73,110.85,110.89,110.85,110.89,1400
74,110.92,110.92,110.86,110.86,3085
75,110.965,110.97,110.87,110.9,4893
76,110.955,110.98,110.94,110.94,500
77,110.96,110.96,110.93,110.95,1000
78,110.94,110.965,110.94,110.96,600
79,110.955,110.955,110.955,110.955,100
81,111,111,110.96,110.96,3135
82,110.98,111,110.96,111,3106
83,110.93,111.01,110.88,111.01,5300
84,110.96,110.96,110.93,110.93,200
85,110.885,110.925,110.885,110.925,1000
86,110.87,110.88,110.87,110.88,200
87,110.87,110.87,110.87,110.87,552
88,110.93,110.93,110.91,110.91,200
89,110.86,110.89,110.86,110.89,1547
90,110.86,110.86,110.86,110.86,100
91,110.91,110.91,110.885,110.885,200
92,110.8733,110.8733,110.8733,110.8733,100
93,110.86,110.91,110.86,110.885,1003
94,110.84,110.86,110.84,110.86,400
95,110.83,110.8667,110.83,110.8667,320
96,110.84,110.84,110.83,110.83,200
97,110.86,110.86,110.83,110.849,526
98,110.83,110.83,110.83,110.83,100
99,110.8,110.8,110.8,110.8,100
100,110.82,110.83,110.8,110.8,1500
101,110.82,110.84,110.8,110.84,2100
103,110.8,110.82,110.8,110.8,500
104,110.77,110.78,110.76,110.77,800
105,110.8,110.8,110.79,110.79,900
106,110.8,110.82,110.8,110.82,200
107,110.8,110.8,110.8,110.8,100
108,110.78,110.8032,110.78,110.8032,1178
109,110.77,110.79,110.77,110.79,400
110,110.745,110.76,110.72,110.76,900
111,110.855,110.855,110.73,110.73,2566
114,110.85,110.86,110.85,110.86,200
115,110.83,110.84,110.83,110.84,300
116,110.86,110.86,110.83,110.83,800
117,110.85,110.85,110.84,110.85,500
118,110.8,110.835,110.789,110.835,1867
119,110.85,110.85,110.81,110.81,600
120,110.83,110.84,110.8,110.83,1239
121,110.815,110.83,110.8,110.83,569
122,110.83,110.83,110.83,110.83,100
123,110.81,110.83,110.81,110.82,2130
124,110.8,110.81,110.8,110.81,600
125,110.79,110.79,110.79,110.79,100
126,110.781,110.781,110.78,110.78,466
127,110.8,110.82,110.79,110.8,1200
130,110.8232,110.8232,110.79,110.79,1823
131,110.78,110.83,110.78,110.82,3527
132,110.77,110.77,110.77,110.77,100
133,110.75,110.77,110.75,110.765,2100
134,110.77,110.78,110.7,110.74,3015
135,110.76,110.76,110.76,110.76,200
136,110.79,110.79,110.77,110.77,1000
137,110.77,110.7868,110.77,110.7868,1360
140,110.83,110.83,110.78,110.78,1600
141,110.81,110.86,110.81,110.85,1651
142,110.81,110.81,110.81,110.81,1200
143,110.81,110.83,110.81,110.82,1900
144,110.81,110.82,110.81,110.82,500
145,110.86,110.86,110.83,110.83,600
146,110.86,110.86,110.86,110.86,200
147,110.87,110.87,110.87,110.87,100
148,110.9,110.91,110.88,110.88,600
149,110.87,110.8968,110.87,110.8968,1360
150,110.86,110.86,110.86,110.86,200
151,110.85,110.8896,110.85,110.86,628
152,110.853,110.853,110.85,110.85,200
153,110.95,110.95,110.88,110.88,1400
154,110.89,110.94,110.89,110.94,1159
155,110.9,110.9,110.9,110.9,100
156,110.94,110.94,110.9,110.9,200
159,110.915,110.915,110.915,110.915,100
162,110.91,110.91,110.91,110.91,200
164,110.92,110.92,110.9,110.9,1100
165,110.935,110.935,110.92,110.93,1000
166,110.91,110.91,110.91,110.91,100
167,110.93,110.93,110.9057,110.9057,202
171,110.95,110.95,110.95,110.95,120
172,110.92,110.93,110.91,110.91,1300
173,110.883,110.91,110.883,110.91,1611
175,110.855,110.88,110.85,110.86,5775
176,110.84,110.84,110.84,110.84,100
177,110.88,110.88,110.86,110.86,1700
178,110.92,110.93,110.87,110.8765,4257
179,110.9,110.95,110.9,110.95,1700
180,110.92,110.92,110.91,110.91,200
181,110.89,110.9,110.83,110.9,2600
182,110.94,110.94,110.933,110.933,725
183,110.88,110.92,110.88,110.92,233
185,110.935,110.935,110.935,110.935,100
187,110.98,110.98,110.91,110.935,2800
188,110.96,110.96,110.96,110.96,100
189,110.99,110.99,110.95,110.96,4041
190,110.98,111,110.98,111,3531
192,110.995,110.995,110.972,110.972,375
193,110.964,110.964,110.964,110.964,100
194,110.96,110.97,110.96,110.96,600
195,111,111,110.97,110.97,1369
196,110.975,110.975,110.975,110.975,100
198,110.973,110.973,110.973,110.973,100
199,111,111.01,111,111,1300
200,111.025,111.025,111.025,111.025,100
201,111.01,111.01,111,111.01,1200
202,111.0128,111.0128,111.0128,111.0128,320
206,111.02,111.02,111.02,111.02,100
210,111,111.015,110.99,111.015,700
211,111,111,111,111,100
213,110.98,111,110.98,111,700
216,110.98,110.99,110.965,110.98,808
219,110.94,110.95,110.94,110.95,1000
220,110.9,110.93,110.9,110.93,500
221,110.91,110.91,110.86,110.9,1300
222,110.892,110.892,110.892,110.892,490
223,110.92,110.92,110.92,110.92,550
224,110.914,110.914,110.914,110.914,215
225,110.89,110.89,110.87,110.89,1325
226,110.92,110.92,110.9,110.9,400
228,110.9,110.9,110.9,110.9,200
229,110.93,110.94,110.89,110.89,921
230,110.94,110.94,110.94,110.94,200
231,110.97,110.97,110.9468,110.96,400
232,110.96,110.97,110.96,110.97,460
233,110.96,110.96,110.96,110.96,100
234,110.92,110.95,110.92,110.95,1443
235,110.9104,110.9104,110.9104,110.9104,652
237,110.905,110.905,110.905,110.905,100
238,110.9325,110.9325,110.9098,110.9098,838
239,110.93,110.94,110.92,110.92,300
241,110.94,110.94,110.94,110.94,100
242,110.945,110.96,110.945,110.95,1901
244,110.9374,110.9374,110.9374,110.9374,130
245,110.93,110.97,110.93,110.97,200
248,110.945,110.945,110.945,110.945,100
250,110.94,110.97,110.94,110.96,943
251,110.89,110.93,110.89,110.93,800
252,110.9,110.91,110.875,110.875,1525
253,110.91,110.91,110.91,110.91,605
254,110.88,110.9,110.88,110.9,1000
255,110.88,110.89,110.88,110.89,600
257,110.88,110.88,110.87,110.87,900
258,110.9,110.9,110.88,110.89,500
260,110.9,110.9,110.89,110.89,600
261,110.91,110.92,110.91,110.92,1022
262,110.93,110.94,110.93,110.93,400
263,110.92,110.92,110.92,110.92,100
264,110.89,110.96,110.89,110.96,1325
266,110.79,110.88,110.79,110.86,4735
267,110.79,110.79,110.79,110.79,400
268,110.79,110.82,110.784,110.784,1045
270,110.75,110.8,110.75,110.79,1100
271,110.79,110.81,110.78,110.8,900
273,110.79,110.79,110.79,110.79,100
274,110.77,110.77,110.77,110.77,100
275,110.72,110.81,110.72,110.8,3200
276,110.7396,110.7396,110.72,110.72,267
277,110.72,110.76,110.7,110.72,13436
278,110.75,110.75,110.625,110.69,10145
279,110.69,110.77,110.69,110.76,2100
280,110.71,110.71,110.71,110.71,100
281,110.66,110.73,110.66,110.73,1000
282,110.6,110.704,110.59,110.68,6050
283,110.6,110.64,110.6,110.61,500
284,110.65,110.66,110.62,110.6499,10938
285,110.67,110.68,110.65,110.65,6108
286,110.74,110.74,110.69,110.69,900
288,110.6948,110.72,110.6948,110.72,530
289,110.67,110.67,110.67,110.67,100
290,110.69,110.69,110.68,110.68,500
291,110.693,110.72,110.69,110.69,1300
292,110.69,110.7,110.69,110.7,400
293,110.68,110.69,110.68,110.69,2800
294,110.68,110.7,110.68,110.68,990
296,110.68,110.7,110.68,110.68,2773
297,110.65,110.68,110.65,110.68,1000
298,110.68,110.69,110.66,110.66,1300
299,110.7,110.7,110.68,110.68,1800
300,110.72,110.72,110.7,110.7,500
301,110.68,110.73,110.68,110.72,3700
302,110.68,110.68,110.68,110.68,585
303,110.7,110.7,110.7,110.7,300
304,110.74,110.76,110.72,110.72,1500
305,110.75,110.75,110.72,110.72,2100
306,110.7185,110.74,110.7185,110.74,360
307,110.695,110.7,110.68,110.7,891
308,110.69,110.69,110.685,110.685,800
309,110.695,110.695,110.695,110.695,100
310,110.67,110.695,110.66,110.695,1777
311,110.68,110.69,110.68,110.68,900
312,110.66,110.66,110.66,110.66,100
313,110.675,110.69,110.66,110.66,2100
314,110.66,110.69,110.66,110.69,3326
315,110.665,110.67,110.66,110.66,3572
316,110.66,110.665,110.66,110.665,1244
317,110.69,110.69,110.66,110.66,2492
318,110.69,110.69,110.675,110.675,600
319,110.66,110.68,110.66,110.66,4000
320,110.66,110.67,110.66,110.67,7500
321,110.665,110.67,110.66,110.67,2527
322,110.66,110.66,110.66,110.66,800
323,110.67,110.675,110.66,110.66,2677
325,110.665,110.67,110.66,110.67,1700
326,110.68,110.68,110.67,110.67,1900
327,110.69,110.69,110.68,110.68,4400
328,110.68,110.7,110.68,110.7,1888
329,110.68,110.68,110.68,110.68,1900
330,110.62,110.6826,110.62,110.68,4207
331,110.61,110.61,110.61,110.61,100
332,110.55,110.635,110.55,110.635,2900
333,110.52,110.54,110.52,110.54,200
334,110.536,110.536,110.51,110.51,415
335,110.53,110.56,110.515,110.515,2963
336,110.575,110.575,110.53,110.53,6800
338,110.575,110.58,110.56,110.56,1500
339,110.61,110.61,110.585,110.585,2530
340,110.6,110.6291,110.6,110.62,2187
341,110.61,110.61,110.6,110.6,1957
344,110.61,110.62,110.6,110.6,4146
345,110.6,110.61,110.6,110.61,1700
346,110.6,110.605,110.6,110.6,2816
347,110.62,110.62,110.6,110.6,4246
348,110.605,110.62,110.6,110.61,5400
349,110.6041,110.6041,110.6041,110.6041,1000
350,110.615,110.63,110.605,110.61,3290
351,110.63,110.63,110.61,110.61,557
352,110.6,110.62,110.6,110.612,3013
353,110.56,110.6,110.55,110.6,18197
354,110.56,110.56,110.55,110.55,1000
355,110.57,110.57,110.55,110.56,2771
356,110.605,110.605,110.57,110.57,4682
357,110.63,110.63,110.61,110.61,1400
358,110.61,110.63,110.6,110.63,4900
359,110.6,110.61,110.6,110.61,7646
360,110.61,110.61,110.6,110.6,400
361,110.605,110.61,110.6,110.6,4143
362,110.62,110.62,110.605,110.61,11667
363,110.63,110.64,110.62,110.62,3325
364,110.63,110.64,110.62,110.635,6471
365,110.67,110.67,110.64,110.64,1421
366,110.66,110.66,110.65,110.66,4322
367,110.62,110.65,110.62,110.65,9400
368,110.62,110.62,110.62,110.62,5856
369,110.46,110.62,110.46,110.62,15222
370,110.43,110.46,110.395,110.45,4600
371,110.415,110.43,110.393,110.415,10334
372,110.5,110.5,110.42,110.43,8108
373,110.53,110.53,110.5,110.5,7154
374,110.56,110.56,110.53,110.54,1268
375,110.54,110.56,110.52,110.56,31224
376,110.54,110.58,110.54,110.54,11234
377,110.57,110.57,110.54,110.54,3578
378,110.59,110.59,110.56,110.56,7736
379,110.6,110.6016,110.58,110.58,3756
380,110.595,110.6,110.58,110.59,3650
381,110.6,110.61,110.53,110.59,17121
382,110.6,110.605,110.6,110.605,2807
383,110.61,110.61,110.6,110.6,5330
384,110.635,110.635,110.61,110.61,4722
385,110.62,110.635,110.62,110.63,4562
386,110.63,110.63,110.6,110.63,11732
387,110.64,110.66,110.62,110.62,19109
388,110.65,110.66,110.63,110.64,4756
389,110.7,110.7,110.65,110.65,8997
390,110.63,110.71,110.62,110.69,25027
