EOG,EOG Resources,Energy,3,Oil & Gas Exploration & Production,53147322728,3103541
a1495027800,93.13,93.28,93.13,93.28,23221
1,93.21,93.36,93.08,93.12,6785
2,93.26,93.33,93.26,93.31,1500
3,93.46,93.46,93.27,93.2743,3100
4,93.47,93.55,93.3876,93.3876,8798
5,93.235,93.5,93.2,93.5,4294
6,93.3,93.32,93.195,93.2437,1980
7,93.38,93.44,93.305,93.305,4563
8,93.37,93.39,93.3,93.39,5900
9,93.27,93.32,93.18,93.32,6341
10,93.235,93.33,93.22,93.27,10405
11,93.34,93.36,93.21,93.24,6681
12,93.1,93.37,93.1,93.36,6344
13,92.965,93.24,92.92,93.14,8460
14,93.19,93.24,92.95,92.9553,5804
15,93.2,93.23,93.09,93.145,4146
16,93.19,93.25,93.13,93.22,6057
17,93.37,93.37,93.2,93.2,2800
18,93.39,93.45,93.355,93.37,3100
19,93.48,93.48,93.4,93.45,3387
20,93.43,93.47,93.37,93.465,5809
21,93.315,93.43,93.29,93.43,2401
22,93.36,93.36,93.33,93.34,2800
23,93.235,93.32,93.235,93.32,1710
24,93.405,93.405,93.19,93.23,2100
25,93.275,93.43,93.27,93.42,1302
26,93.25,93.34,93.17,93.34,3896
27,93.29,93.34,93.23,93.25,3551
28,93.31,93.36,93.18,93.28,9060
29,93.34,93.4,93.285,93.35,3200
30,93.32,93.33,93.14,93.33,8418
31,93.41,93.41,93.31,93.31,4151
32,93.49,93.49,93.41,93.43,4300
33,93.64,93.64,93.5,93.5,4955
34,93.81,93.81,93.58,93.62,3575
35,93.8,93.81,93.715,93.775,7650
36,93.74,93.77,93.6701,93.77,3615
37,93.62,93.74,93.62,93.73,2850
38,93.695,93.72,93.65,93.66,3800
39,93.73,93.77,93.69,93.72,2263
40,93.72,93.76,93.65,93.76,2867
41,93.84,93.84,93.7,93.7,2800
42,93.79,93.9,93.76,93.89,3986
43,93.74,93.84,93.7,93.81,21302
44,93.67,93.715,93.61,93.715,5940
45,93.68,93.68,93.6,93.61,2397
46,93.66,93.68,93.6,93.67,1971
47,93.51,93.66,93.5,93.6,5400
48,93.53,93.57,93.5,93.51,3901
49,93.65,93.66,93.53,93.54,1740
50,93.53,93.62,93.53,93.59,2000
51,93.54,93.57,93.51,93.55,5962
52,93.48,93.54,93.39,93.54,2658
53,93.48,93.49,93.4,93.42,5292
54,93.45,93.49,93.42,93.49,2818
55,93.47,93.47,93.35,93.45,3300
56,93.43,93.48,93.4,93.4755,2000
57,93.42,93.44,93.371,93.44,2805
58,93.33,93.395,93.33,93.395,1400
59,93.36,93.36,93.32,93.32,1297
60,93.46,93.61,93.41,93.41,9652
61,93.9,93.9,93.45,93.45,14362
62,93.968,94,93.83,93.85,5046
63,94.21,94.22,93.9664,93.9664,6751
64,94.15,94.26,94.15,94.21,14362
65,94.2,94.24,94.09,94.15,4019
66,94.2,94.3,94.18,94.2,8044
67,94.08,94.25,94.08,94.25,4088
68,94.06,94.12,94.01,94.12,5933
69,93.97,94.06,93.93,94.06,11920
70,94,94.06,93.95,94,6854
71,94,94,93.93,93.99,4702
72,93.945,93.99,93.93,93.975,9379
73,93.7211,93.93,93.7211,93.92,7523
74,93.7375,93.85,93.73,93.73,7451
75,93.94,93.94,93.7347,93.75,3410
76,93.97,93.97,93.87,93.96,7202
77,94,94,93.94,93.97,6660
78,94,94,93.95,94,2924
79,93.96,94.02,93.95,94,7929
80,93.86,93.94,93.86,93.94,2100
81,93.95,93.95,93.81,93.88,3250
82,93.93,93.99,93.92,93.99,1201
83,93.91,93.92,93.85,93.92,1995
84,93.81,93.94,93.72,93.933,3883
85,93.85,93.91,93.82,93.82,2400
86,93.79,93.86,93.79,93.81,3085
87,93.71,93.85,93.7,93.82,2467
88,93.55,93.7,93.55,93.69,5028
89,93.69,93.74,93.61,93.61,8748
90,93.7,93.74,93.63,93.73,2655
91,93.74,93.74,93.61,93.73,1700
92,93.88,93.92,93.75,93.75,4925
93,93.88,93.92,93.8201,93.92,1466
94,93.88,93.92,93.83,93.8428,5200
95,93.86,93.89,93.82,93.89,4298
96,93.99,93.99,93.84,93.855,2625
97,93.98,94.01,93.96,93.96,7795
98,94,94.02,93.97,94.01,2300
99,94.01,94.02,93.96,94,2600
100,93.93,94.01,93.93,94.01,2027
101,93.96,93.96,93.9,93.95,2274
102,93.96,94.03,93.96,94,7228
103,94,94,93.94,93.95,2401
104,93.93,94.01,93.9,94,5253
105,93.9,93.93,93.9,93.93,2098
106,93.88,93.93,93.88,93.89,4607
107,93.97,93.97,93.87,93.87,1900
108,93.95,93.95,93.89,93.94,2000
109,93.955,94,93.95,93.96,6934
110,93.97,93.97,93.93,93.94,2115
111,93.97,94.02,93.961,93.961,8204
112,93.99,94.01,93.94,94,2200
113,93.91,93.94,93.89,93.94,1800
114,93.97,93.97,93.9,93.92,1900
115,93.965,93.99,93.93,93.97,1900
116,94,94.01,93.96,93.965,7989
117,93.95,94.01,93.94,94,18392
118,93.9796,94,93.9322,93.96,2764
119,93.99,93.99,93.93,93.96,1200
120,93.92,93.94,93.87,93.94,3477
121,93.99,93.99,93.94,93.96,1951
122,93.99,93.99,93.95,93.99,2600
123,93.95,94.02,93.95,93.99,14389
124,93.96,93.97,93.93,93.94,1900
125,93.99,94.01,93.93,93.93,6419
126,93.96,94.01,93.96,94,4425
127,93.95,93.95,93.9,93.9325,2930
128,93.96,93.99,93.94,93.95,1701
129,93.91,93.98,93.91,93.98,1237
130,93.91,93.91,93.85,93.87,1330
131,94.01,94.04,93.895,93.895,4742
132,93.96,94.04,93.95,94.01,5012
133,93.96,93.98,93.96,93.97,800
134,93.965,93.985,93.965,93.97,1350
135,94.005,94.02,93.95,93.95,8176
136,94.09,94.12,94,94.01,13761
137,94.02,94.095,94.02,94.08,2500
138,93.96,94.015,93.96,94.01,3562
139,93.94,94,93.94,93.97,1700
140,93.91,93.9491,93.91,93.94,1036
141,93.95,93.98,93.92,93.94,2450
142,93.95,93.97,93.94,93.97,1200
143,93.92,93.97,93.92,93.97,3250
144,93.92,93.94,93.91,93.94,2451
145,93.87,93.91,93.85,93.91,1900
146,93.89,93.89,93.85,93.85,1000
147,93.86,93.86,93.82,93.86,4199
148,93.95,93.95,93.88,93.88,1311
149,93.97,94,93.95,93.95,1303
150,93.92,93.97,93.91,93.96,3000
151,93.94,93.94,93.89,93.91,2803
152,93.95,93.99,93.95,93.97,901
153,93.99,93.99,93.94,93.95,2192
154,94,94,93.99,94,4388
155,93.9692,94.01,93.965,94,1750
156,93.98,93.99,93.95,93.96,3000
157,93.96,93.98,93.96,93.98,1202
158,93.92,93.95,93.92,93.94,1002
159,93.85,93.9,93.85,93.9,1906
160,93.87,93.88,93.84,93.8617,2826
161,93.89,93.89,93.86,93.86,3751
162,93.89,93.895,93.89,93.895,800
163,93.92,93.92,93.89,93.89,2600
164,93.895,93.9,93.89,93.9,1100
165,93.85,93.88,93.81,93.88,1951
166,93.81,93.83,93.81,93.83,500
167,93.79,93.81,93.78,93.81,1340
168,93.77,93.792,93.77,93.79,5022
169,93.785,93.79,93.78,93.78,2016
170,93.79,93.805,93.78,93.78,4696
171,93.8299,93.8299,93.81,93.81,400
172,93.83,93.83,93.81,93.81,1400
173,93.845,93.85,93.81,93.81,1400
174,93.775,93.845,93.774,93.8345,2887
175,93.76,93.78,93.76,93.76,1100
176,93.76,93.76,93.75,93.76,2151
177,93.71,93.75,93.7,93.75,4796
178,93.75,93.75,93.7,93.7,2790
179,93.76,93.78,93.73,93.73,2110
180,93.72,93.767,93.71,93.749,2180
181,93.71,93.76,93.67,93.72,3200
182,93.71,93.71,93.66,93.68,1000
183,93.655,93.69,93.64,93.686,2303
184,93.675,93.69,93.66,93.68,700
185,93.68,93.73,93.68,93.69,3735
186,93.72,93.72,93.69,93.69,1927
187,93.726,93.726,93.71,93.71,200
188,93.7356,93.7356,93.69,93.715,2993
189,93.7199,93.7199,93.7,93.71,901
190,93.72,93.72,93.6601,93.68,1753
191,93.75,93.75,93.74,93.74,1000
192,93.73,93.74,93.73,93.74,900
193,93.69,93.7,93.69,93.69,600
194,93.69,93.7,93.68,93.69,3500
195,93.65,93.69,93.62,93.69,2600
196,93.67,93.67,93.65,93.65,400
197,93.71,93.71,93.67,93.67,600
198,93.72,93.72,93.69,93.71,1800
199,93.7,93.72,93.7,93.72,1900
200,93.67,93.68,93.67,93.68,500
201,93.64,93.68,93.64,93.68,1300
202,93.705,93.72,93.655,93.67,1500
203,93.68,93.7,93.68,93.7,1037
204,93.66,93.68,93.66,93.68,400
205,93.66,93.67,93.66,93.67,729
206,93.715,93.72,93.68,93.68,3200
207,93.73,93.74,93.7,93.74,2250
208,93.77,93.78,93.74,93.74,3450
209,93.81,93.81,93.76,93.76,1600
210,93.79,93.84,93.78,93.81,3407
211,93.8,93.82,93.8,93.82,400
212,93.8,93.81,93.78,93.79,3060
213,93.78,93.78,93.78,93.78,626
214,93.81,93.81,93.777,93.777,2400
215,93.77,93.8,93.75,93.8,4550
216,93.74,93.76,93.74,93.75,2000
217,93.75,93.76,93.73,93.73,4740
218,93.81,93.82,93.77,93.78,2200
219,93.8699,93.8699,93.802,93.802,2550
220,93.87,93.87,93.8586,93.8586,2153
221,93.8299,93.85,93.82,93.85,1607
222,93.79,93.86,93.79,93.83,2840
223,93.78,93.78,93.76,93.78,2650
224,93.74,93.77,93.71,93.77,2501
225,93.74,93.76,93.74,93.74,1300
226,93.73,93.76,93.73,93.74,2001
227,93.73,93.74,93.71,93.73,2443
228,93.6775,93.72,93.65,93.71,2319
229,93.7,93.72,93.69,93.69,1700
230,93.67,93.71,93.66,93.7,1900
231,93.69,93.72,93.68,93.68,2650
232,93.7,93.7,93.67,93.68,1100
233,93.73,93.73,93.72,93.72,500
234,93.74,93.75,93.73,93.73,4201
235,93.68,93.74,93.68,93.739,2600
236,93.65,93.69,93.61,93.69,2435
237,93.63,93.68,93.63,93.645,3223
238,93.66,93.68,93.66,93.66,500
239,93.65,93.68,93.65,93.6501,600
240,93.565,93.64,93.56,93.63,2100
241,93.47,93.56,93.47,93.54,4201
242,93.56,93.56,93.465,93.48,3150
243,93.57,93.57,93.54,93.56,901
244,93.555,93.58,93.535,93.58,2901
245,93.6,93.63,93.57,93.58,2500
246,93.58,93.58,93.58,93.58,900
247,93.56,93.59,93.55,93.57,2313
248,93.56,93.56,93.53,93.54,1351
249,93.53,93.55,93.527,93.55,1403
250,93.55,93.57,93.5325,93.5325,3001
251,93.48,93.53,93.47,93.53,1900
252,93.4653,93.48,93.435,93.435,2814
253,93.5048,93.52,93.45,93.45,1950
254,93.5,93.52,93.47,93.5016,2600
255,93.48,93.4953,93.47,93.48,1451
256,93.46,93.49,93.45,93.48,3979
257,93.4325,93.46,93.42,93.44,2100
258,93.47,93.47,93.43,93.43,1600
259,93.4825,93.5,93.43,93.4586,6550
260,93.51,93.51,93.49,93.49,1000
261,93.5,93.51,93.5,93.51,600
262,93.54,93.54,93.5,93.51,1466
263,93.57,93.6,93.5431,93.5431,2951
264,93.58,93.58,93.58,93.58,100
265,93.6,93.615,93.575,93.575,2851
266,93.61,93.61,93.58,93.6,1792
267,93.52,93.62,93.52,93.62,2800
268,93.5,93.5,93.5,93.5,746
269,93.44,93.5,93.44,93.5,1386
270,93.4,93.44,93.39,93.44,24231
271,93.51,93.53,93.41,93.41,4700
272,93.52,93.54,93.5,93.5,2701
273,93.61,93.62,93.54,93.54,1300
274,93.59,93.61,93.55,93.6,3131
275,93.65,93.65,93.58,93.59,2300
276,93.59,93.65,93.59,93.65,1100
277,93.5566,93.58,93.54,93.58,2270
278,93.59,93.61,93.56,93.56,2050
279,93.66,93.66,93.581,93.581,5007
280,93.66,93.66,93.63,93.66,742
281,93.62,93.66,93.61,93.66,1000
282,93.53,93.61,93.53,93.61,3464
283,93.52,93.56,93.51,93.55,2450
284,93.59,93.61,93.53,93.53,2800
285,93.61,93.61,93.58,93.61,1500
286,93.52,93.62,93.52,93.6,5650
287,93.47,93.54,93.44,93.53,9115
288,93.465,93.49,93.45,93.47,4066
289,93.51,93.52,93.475,93.475,3169
290,93.51,93.53,93.5,93.5,4080
291,93.473,93.52,93.46,93.5,5107
292,93.46,93.52,93.46,93.5,3050
293,93.4,93.47,93.4,93.46,2122
294,93.375,93.43,93.35,93.405,4023
295,93.38,93.38,93.34,93.345,2995
296,93.27,93.35,93.27,93.35,6550
297,93.26,93.28,93.26,93.28,2213
298,93.2,93.25,93.19,93.25,2091
299,93.149,93.18,93.09,93.18,8590
300,93.14,93.2,93.14,93.15,2110
301,93.16,93.17,93.14,93.1401,4915
302,93.19,93.2,93.15,93.15,7710
303,93.17,93.22,93.13,93.19,11485
304,93.18,93.18,93.13,93.18,900
305,93.12,93.2,93.12,93.16,3559
306,93.1239,93.14,93.1,93.11,1602
307,93.08,93.15,93.08,93.14,2400
308,93.17,93.18,93.1,93.1,1909
309,93.18,93.19,93.12,93.19,2843
310,93.05,93.18,93.05,93.15,3801
311,93.084,93.1,93.07,93.07,1534
312,93.03,93.07,93.01,93.07,4099
313,92.975,93.01,92.96,93.01,6778
314,92.99,93.04,92.96,92.98,5657
315,93.03,93.03,92.9801,93.01,2101
316,93.05,93.06,93,93,2792
317,92.99,93.06,92.99,93.06,9344
318,93.05,93.05,93,93,1950
319,92.99,93.04,92.97,93.03,4542
320,93.01,93.02,92.98,92.981,4336
321,93.01,93.03,92.98,93.02,2000
322,93.01,93.03,92.99,93.03,1811
323,92.99,93.01,92.98,92.99,6015
324,93.09,93.09,92.97,92.98,4358
325,93.1202,93.14,93.05,93.07,3522
326,93.21,93.21,93.14,93.14,4077
327,93.29,93.31,93.201,93.22,4050
328,93.35,93.35,93.27,93.27,4524
329,93.32,93.33,93.31,93.33,2082
330,93.3599,93.38,93.29,93.2986,4408
331,93.295,93.36,93.295,93.3425,5423
332,93.26,93.295,93.2449,93.29,2822
333,93.3499,93.37,93.27,93.27,4196
334,93.35,93.37,93.31,93.33,3600
335,93.25,93.37,93.25,93.37,3218
336,93.3,93.31,93.25,93.28,5685
337,93.35,93.4,93.285,93.3,4674
338,93.49,93.5,93.35,93.37,2557
339,93.4,93.49,93.4,93.49,4572
340,93.4546,93.46,93.37,93.42,4376
341,93.475,93.51,93.44,93.44,5165
342,93.47,93.51,93.45,93.46,5794
343,93.59,93.61,93.4593,93.4593,7583
344,93.67,93.7025,93.59,93.6027,11187
345,93.5711,93.68,93.57,93.68,3218
346,93.6,93.6,93.55,93.57,4400
347,93.63,93.6628,93.6,93.61,2750
348,93.57,93.64,93.57,93.64,4500
349,93.58,93.61,93.55,93.59,11596
350,93.59,93.65,93.59,93.61,7354
351,93.48,93.59,93.48,93.59,7632
352,93.46,93.51,93.44,93.48,5050
353,93.46,93.5,93.45,93.4586,6059
354,93.49,93.52,93.45,93.47,5910
355,93.46,93.48,93.45,93.47,6001
356,93.42,93.46,93.37,93.46,9494
357,93.48,93.48,93.41,93.41,6179
358,93.45,93.49,93.44,93.49,3419
359,93.34,93.45,93.34,93.45,4175
360,93.33,93.36,93.3,93.36,3200
361,93.39,93.41,93.3,93.31,7350
362,93.42,93.45,93.36,93.39,7233
363,93.43,93.45,93.42,93.42,4119
364,93.35,93.45,93.33,93.43,7508
365,93.36,93.38,93.31,93.36,6812
366,93.32,93.34,93.28,93.34,11815
367,93.38,93.42,93.34,93.35,4999
368,93.38,93.39,93.35,93.37,6325
369,93.4,93.42,93.38,93.38,6860
370,93.31,93.41,93.31,93.41,7199
371,93.28,93.32,93.255,93.31,6700
372,93.205,93.275,93.2,93.275,8742
373,93.19,93.2,93.1,93.2,13719
374,93.18,93.21,93.13,93.18,7900
375,93.11,93.2,93.09,93.19,8978
376,93.12,93.16,93.06,93.09,8019
377,93.08,93.12,93.07,93.11,7296
378,93.05,93.12,93.05,93.085,10086
379,93.11,93.14,93.02,93.05,8040
380,93.11,93.1399,93.06,93.1,11656
381,93.04,93.12,93.01,93.1,10474
382,93.11,93.14,93.02,93.03,11048
383,93.11,93.15,93.08,93.12,9253
384,93.11,93.15,93.11,93.13,13355
385,93.02,93.13,93.02,93.1,14722
386,92.995,93.06,92.995,93.03,28307
387,93,93,92.93,92.99,25773
388,92.935,93,92.92,92.99,28965
389,93,93.02,92.91,92.94,40632
390,92.92,93.01,92.83,93,78626
