PPG,PPG Industries,Materials,8,Specialty Chemicals,26880999559,1236164
a1495027800,106.71,106.71,106.71,106.71,6465
1,106.4289,106.55,106.171,106.55,1416
2,106.5,106.5,106.5,106.5,100
3,106.67,106.77,106.5,106.5,901
4,106.81,106.81,106.66,106.66,900
5,107.03,107.03,106.83,106.83,700
6,106.75,106.93,106.69,106.86,2000
7,106.56,106.67,106.56,106.67,600
8,106.635,106.75,106.62,106.67,1000
9,106.628,106.67,106.57,106.67,950
10,106.77,106.77,106.5,106.57,2050
11,106.77,106.85,106.75,106.75,900
12,106.73,106.73,106.68,106.69,1000
13,106.68,106.69,106.68,106.69,900
15,106.64,106.72,106.57,106.65,5700
16,106.7,106.79,106.61,106.61,4800
17,106.705,106.705,106.7,106.7,200
18,106.8,106.83,106.715,106.75,3776
19,106.88,106.89,106.8,106.8,4400
20,106.92,106.95,106.85,106.87,3700
21,106.83,106.88,106.83,106.88,500
22,106.9,106.91,106.8675,106.88,900
23,106.9,106.91,106.87,106.89,2100
24,106.96,106.96,106.86,106.895,2200
25,106.92,107,106.92,106.97,1775
26,106.83,106.925,106.83,106.925,1551
27,106.865,106.91,106.86,106.86,800
28,106.51,106.93,106.45,106.93,24076
29,106.7275,106.7275,106.53,106.53,700
30,106.72,106.8,106.71,106.72,1800
31,106.68,106.68,106.68,106.68,100
32,106.5301,106.7,106.53,106.69,4316
33,106.55,106.58,106.49,106.54,3900
34,106.45,106.57,106.4401,106.57,3300
35,106.52,106.52,106.465,106.465,2104
36,106.51,106.54,106.44,106.5,6155
37,106.58,106.58,106.49,106.51,1295
38,106.71,106.71,106.58,106.58,1400
39,106.75,106.75,106.73,106.74,1000
40,106.76,106.77,106.75,106.75,800
41,106.86,106.88,106.79,106.79,1500
42,106.86,106.91,106.86,106.87,2267
43,106.81,106.85,106.81,106.85,800
44,106.87,106.87,106.82,106.82,4300
45,106.89,106.92,106.88,106.88,2010
46,106.92,106.96,106.9,106.9,2403
47,106.98,107,106.93,106.94,1400
48,107.02,107.08,106.96,106.9858,4768
49,107.01,107.02,107.01,107.02,200
50,106.91,107.01,106.91,107.01,2079
51,106.85,106.91,106.85,106.91,929
52,106.76,106.88,106.76,106.87,3762
53,106.81,106.83,106.78,106.78,900
54,106.68,106.79,106.68,106.79,800
55,106.7242,106.75,106.66,106.66,1236
56,106.68,106.7,106.68,106.7,700
57,106.67,106.71,106.67,106.68,700
58,106.645,106.653,106.645,106.65,1222
59,106.66,106.66,106.6,106.62,1800
60,106.64,106.7,106.64,106.67,1450
61,106.66,106.66,106.635,106.66,826
62,106.63,106.66,106.63,106.66,300
63,106.77,106.8,106.64,106.64,1900
64,106.74,106.78,106.72,106.75,1664
65,106.681,106.74,106.68,106.7,1632
66,106.69,106.72,106.69,106.69,1000
67,106.66,106.67,106.66,106.66,600
68,106.63,106.67,106.63,106.65,1000
69,106.59,106.64,106.56,106.64,4700
70,106.62,106.645,106.57,106.57,4929
71,106.59,106.61,106.59,106.61,400
72,106.7,106.7,106.61,106.61,1200
73,106.6884,106.6884,106.62,106.68,2296
74,106.69,106.69,106.675,106.675,339
75,106.7,106.7,106.69,106.69,500
76,106.7,106.7,106.69,106.69,600
77,106.67,106.71,106.67,106.71,201
78,106.6,106.67,106.6,106.67,1550
79,106.64,106.67,106.61,106.63,2278
80,106.64,106.67,106.6,106.67,2975
81,106.6,106.65,106.59,106.63,1936
83,106.595,106.595,106.595,106.595,200
84,106.53,106.595,106.45,106.595,4650
86,106.51,106.51,106.46,106.5,1100
87,106.6,106.61,106.52,106.52,1200
88,106.55,106.58,106.55,106.58,1300
89,106.51,106.54,106.51,106.52,1700
90,106.5,106.5,106.48,106.48,200
91,106.4772,106.51,106.46,106.5,2595
92,106.47,106.48,106.44,106.46,6476
93,106.45,106.4725,106.39,106.4725,4825
94,106.44,106.45,106.44,106.44,1000
95,106.42,106.45,106.42,106.4378,1861
96,106.48,106.48,106.4,106.43,4308
97,106.5,106.5,106.5,106.5,200
98,106.53,106.53,106.48,106.5,3027
99,106.51,106.53,106.51,106.52,600
100,106.52,106.52,106.51,106.52,400
101,106.47,106.5,106.47,106.5,2009
102,106.55,106.55,106.51,106.51,3448
104,106.62,106.62,106.54,106.55,2036
105,106.69,106.69,106.62,106.62,490
106,106.69,106.69,106.66,106.67,750
107,106.7,106.72,106.68,106.68,3601
108,106.66,106.7335,106.66,106.71,5799
109,106.65,106.67,106.61,106.67,2886
110,106.58,106.65,106.56,106.635,15326
111,106.57,106.58,106.48,106.56,13037
112,106.58,106.58,106.54,106.54,830
113,106.5,106.56,106.42,106.56,10352
114,106.37,106.47,106.37,106.47,3775
115,106.37,106.38,106.29,106.38,5208
116,106.41,106.42,106.33,106.37,3250
117,106.33,106.42,106.32,106.41,3758
118,106.31,106.37,106.28,106.33,3376
119,106.28,106.35,106.28,106.31,3047
120,106.26,106.29,106.26,106.29,1025
121,106.31,106.32,106.3,106.32,700
122,106.2981,106.32,106.28,106.32,800
123,106.23,106.34,106.23,106.3,7295
124,106.206,106.24,106.19,106.23,825
125,106.17,106.23,106.15,106.21,2100
126,106.21,106.23,106.17,106.17,1421
127,106.19,106.19,106.18,106.19,987
128,106.21,106.22,106.18,106.19,1400
129,106.23,106.27,106.21,106.21,2100
130,106.23,106.24,106.23,106.23,400
131,106.3,106.3,106.23,106.23,2200
132,106.31,106.31,106.31,106.31,300
133,106.29,106.32,106.29,106.32,750
134,106.32,106.36,106.31,106.31,2680
135,106.31,106.31,106.3,106.31,901
136,106.29,106.29,106.29,106.29,500
137,106.2801,106.2901,106.2801,106.2901,700
138,106.25,106.26,106.25,106.26,200
139,106.26,106.29,106.2475,106.26,1400
140,106.26,106.3,106.26,106.26,2369
141,106.3,106.3,106.28,106.28,1200
142,106.31,106.31,106.3,106.3,901
143,106.3001,106.32,106.3001,106.31,1877
144,106.28,106.28,106.28,106.28,500
145,106.23,106.2776,106.23,106.27,2200
146,106.14,106.2,106.14,106.2,1100
147,106.18,106.2,106.155,106.17,1400
148,106.21,106.22,106.165,106.165,2290
149,106.27,106.27,106.2101,106.22,3138
150,106.24,106.3,106.24,106.28,1000
151,106.249,106.249,106.249,106.249,163
153,106.21,106.24,106.17,106.24,5300
154,106.21,106.22,106.1901,106.2,1082
155,106.2265,106.2301,106.21,106.21,2346
156,106.25,106.27,106.22,106.24,1000
157,106.21,106.26,106.21,106.26,1200
158,106.26,106.27,106.23,106.23,1210
161,106.24,106.29,106.23,106.26,2220
162,106.28,106.28,106.24,106.24,2275
163,106.26,106.26,106.26,106.26,200
164,106.3,106.3,106.29,106.29,1200
165,106.33,106.33,106.3,106.3,700
166,106.33,106.35,106.3201,106.34,1200
167,106.34,106.34,106.3,106.32,2225
168,106.33,106.33,106.33,106.33,100
169,106.31,106.31,106.31,106.31,260
170,106.31,106.31,106.3071,106.3071,300
171,106.29,106.32,106.29,106.32,1210
172,106.27,106.27,106.26,106.27,500
173,106.27,106.28,106.255,106.27,2400
174,106.28,106.31,106.2401,106.26,1590
175,106.22,106.29,106.22,106.29,5200
176,106.21,106.215,106.21,106.215,351
177,106.18,106.18,106.13,106.17,3711
178,106.17,106.17,106.13,106.17,5400
179,106.13,106.16,106.13,106.16,1300
180,106.09,106.13,106.09,106.13,3236
181,106.08,106.09,106.08,106.09,500
182,106.11,106.11,106.11,106.11,100
184,106.025,106.082,106.02,106.0801,8185
185,106.025,106.035,106,106,6780
186,106.0325,106.05,106.02,106.025,8709
187,106.03,106.06,106.03,106.035,5470
188,106.1,106.11,106.02,106.03,6602
189,106.11,106.11,106.11,106.11,100
190,106.16,106.16,106.1,106.1,2300
191,106.1301,106.2,106.1301,106.17,2360
192,106.1299,106.14,106.1267,106.14,739
193,106.12,106.12,106.12,106.12,200
194,106.15,106.15,106.09,106.1101,2350
195,106.16,106.17,106.15,106.15,600
196,106.17,106.2,106.16,106.16,3000
197,106.16,106.17,106.16,106.17,1310
198,106.18,106.2,106.16,106.16,1300
199,106.18,106.22,106.18,106.19,800
201,106.15,106.16,106.13,106.16,2010
202,106.13,106.13,106.13,106.13,100
203,106.19,106.19,106.19,106.19,200
204,106.22,106.25,106.17,106.17,3017
205,106.2,106.21,106.2,106.21,200
206,106.2101,106.23,106.2101,106.23,802
207,106.21,106.21,106.21,106.21,310
208,106.17,106.2,106.16,106.2,6141
209,106.16,106.17,106.16,106.16,1500
210,106.17,106.17,106.15,106.17,3610
211,106.14,106.16,106.14,106.16,800
212,106.14,106.15,106.115,106.12,2010
213,106.11,106.1301,106.11,106.1301,675
214,106.12,106.13,106.1,106.11,1301
215,106.14,106.16,106.1,106.1,1500
216,106.1,106.12,106.1,106.12,400
217,106.11,106.11,106.07,106.1,1500
219,106.1,106.11,106.1,106.1,898
220,106.09,106.1,106.09,106.1,508
221,106.08,106.09,106.08,106.09,300
223,106.09,106.1,106.09,106.09,400
224,106.05,106.08,106.04,106.08,2100
225,106.05,106.06,106.05,106.06,510
228,106.03,106.07,106.03,106.07,800
229,106.045,106.05,106.03,106.04,1800
230,105.99,106.04,105.99,106.04,1951
231,106,106,105.98,106,889
232,105.96,105.99,105.94,105.99,1600
233,105.94,105.98,105.94,105.98,700
234,105.96,105.96,105.96,105.96,100
235,105.94,105.96,105.93,105.94,997
236,105.91,105.94,105.9,105.94,1900
237,105.95,105.95,105.88,105.9,3349
238,105.93,105.95,105.93,105.94,400
239,105.94,105.96,105.94,105.94,800
240,105.92,105.95,105.92,105.94,300
241,105.91,105.95,105.91,105.94,2900
242,105.93,105.95,105.93,105.93,800
243,105.91,105.96,105.91,105.95,872
244,105.9,105.92,105.9,105.92,400
245,105.95,105.95,105.9,105.9,1700
246,105.91,105.94,105.91,105.94,1052
247,105.91,105.93,105.91,105.92,800
248,105.86,105.89,105.85,105.87,1540
249,105.9,105.9,105.86,105.86,877
251,105.85,105.9,105.85,105.89,1825
252,105.835,105.85,105.82,105.85,495
253,105.81,105.81,105.79,105.79,600
254,105.84,105.84,105.82,105.82,700
255,105.86,105.878,105.86,105.86,1274
256,105.82,105.84,105.82,105.84,1000
257,105.75,105.8258,105.75,105.8258,1401
258,105.79,105.83,105.76,105.76,8502
259,105.829,105.83,105.77,105.79,2154
260,105.77,105.83,105.77,105.83,800
261,105.77,105.79,105.74,105.77,1078
262,105.75,105.76,105.73,105.76,1800
263,105.74,105.76,105.69,105.73,2150
264,105.69,105.75,105.68,105.75,824
265,105.7,105.72,105.7,105.71,1900
266,105.71,105.73,105.7,105.71,2248
267,105.65,105.68,105.65,105.67,1724
268,105.67,105.68,105.63,105.66,2000
269,105.67,105.69,105.66,105.67,1734
270,105.62,105.65,105.58,105.64,3669
271,105.68,105.705,105.6,105.6,1729
272,105.67,105.7005,105.67,105.67,1010
273,105.66,105.68,105.64,105.65,1400
274,105.68,105.68,105.67,105.67,600
275,105.73,105.73,105.68,105.68,1000
276,105.76,105.76,105.74,105.74,400
277,105.78,105.78,105.75,105.76,1000
278,105.73,105.75,105.72,105.75,985
279,105.75,105.75,105.73,105.73,1120
280,105.77,105.77,105.75,105.75,700
281,105.76,105.76,105.74,105.76,700
282,105.67,105.73,105.67,105.73,1600
283,105.64,105.69,105.64,105.6899,836
284,105.68,105.69,105.64,105.66,1700
285,105.68,105.68,105.64,105.66,900
286,105.65,105.67,105.64,105.66,2405
287,105.57,105.64,105.48,105.64,6719
288,105.54,105.57,105.53,105.57,3620
289,105.6,105.6,105.53,105.55,3292
290,105.58,105.61,105.58,105.59,1521
291,105.6,105.63,105.6,105.6,2160
292,105.5556,105.6,105.5556,105.58,1352
294,105.5,105.55,105.5,105.55,2840
295,105.56,105.56,105.52,105.54,1141
296,105.6,105.6,105.56,105.56,2189
297,105.68,105.68,105.6,105.6,2540
298,105.61,105.66,105.61,105.66,2000
299,105.58,105.61,105.54,105.6,2245
300,105.56,105.6,105.54,105.6,978
301,105.58,105.6,105.56,105.56,1300
302,105.66,105.67,105.59,105.59,3060
303,105.66,105.66,105.66,105.66,200
304,105.69,105.69,105.66,105.66,2100
305,105.64,105.67,105.64,105.67,1200
306,105.61,105.67,105.6,105.67,2377
307,105.61,105.61,105.58,105.58,1165
308,105.64,105.64,105.6101,105.62,873
309,105.62,105.63,105.61,105.63,700
310,105.57,105.64,105.57,105.64,1700
311,105.59,105.59,105.59,105.59,100
312,105.55,105.61,105.55,105.61,900
313,105.53,105.53,105.53,105.53,200
314,105.52,105.56,105.52,105.53,1415
315,105.51,105.52,105.49,105.52,800
316,105.51,105.51,105.46,105.46,2000
317,105.4621,105.49,105.4621,105.49,632
318,105.4597,105.4597,105.445,105.445,265
319,105.45,105.45,105.42,105.42,1229
320,105.43,105.45,105.42,105.44,2700
321,105.42,105.45,105.4,105.42,2251
322,105.41,105.45,105.41,105.44,898
323,105.43,105.44,105.43,105.44,1000
324,105.47,105.47,105.41,105.42,2032
325,105.52,105.52,105.465,105.47,1595
326,105.54,105.54,105.52,105.53,600
327,105.56,105.57,105.5269,105.5269,745
328,105.6,105.6,105.5529,105.5529,835
329,105.55,105.58,105.55,105.58,1052
330,105.6,105.6,105.56,105.56,1350
331,105.6,105.62,105.59,105.61,1400
332,105.55,105.6,105.55,105.6,3086
333,105.562,105.57,105.5425,105.5599,15808
334,105.55,105.55,105.53,105.55,3142
335,105.57,105.58,105.53,105.53,1400
336,105.54,105.56,105.51,105.56,2714
337,105.6,105.61,105.537,105.537,1400
338,105.69,105.69,105.6,105.6,1352
339,105.6201,105.69,105.6,105.68,20205
340,105.64,105.65,105.6,105.6201,2850
341,105.62,105.64,105.62,105.63,500
342,105.51,105.61,105.51,105.61,2050
343,105.55,105.56,105.525,105.525,500
344,105.63,105.63,105.55,105.56,2948
345,105.64,105.66,105.63,105.63,1800
346,105.65,105.65,105.6,105.63,2100
347,105.71,105.74,105.7,105.7,1400
348,105.71,105.74,105.71,105.71,601
349,105.75,105.75,105.73,105.73,940
350,105.77,105.79,105.76,105.77,3234
351,105.76,105.78,105.75,105.75,6100
352,105.8,105.8,105.76,105.76,3050
353,105.82,105.82,105.8,105.8,1801
354,105.79,105.85,105.79,105.82,1890
355,105.75,105.77,105.72,105.77,1600
356,105.74,105.74,105.74,105.74,100
357,105.745,105.75,105.73,105.74,16215
358,105.7,105.74,105.675,105.73,3895
359,105.68,105.71,105.67,105.7,18600
360,105.66,105.7,105.66,105.68,2660
361,105.7,105.7,105.65,105.66,2560
362,105.78,105.78,105.71,105.71,2100
363,105.77,105.78,105.77,105.78,2540
364,105.79,105.82,105.775,105.775,3700
365,105.8,105.8,105.77,105.79,1710
366,105.82,105.82,105.79,105.8,4000
367,105.85,105.87,105.83,105.83,1200
368,105.815,105.83,105.81,105.83,2130
369,105.84,105.88,105.83,105.83,5139
370,105.85,105.85,105.81,105.83,3242
371,105.77,105.84,105.75,105.84,16390
372,105.79,105.8,105.77,105.77,3743
373,105.725,105.78,105.71,105.78,4893
374,105.68,105.73,105.68,105.72,17725
375,105.6,105.7,105.6,105.69,3802
376,105.6,105.64,105.5812,105.59,7319
377,105.595,105.62,105.5886,105.61,4099
378,105.55,105.63,105.55,105.61,4441
379,105.51,105.52,105.47,105.52,3300
380,105.5,105.51,105.45,105.51,4000
381,105.47,105.51,105.45,105.485,17600
382,105.51,105.51,105.45,105.46,5578
383,105.54,105.55,105.51,105.51,5986
384,105.54,105.56,105.53,105.54,4700
385,105.5,105.54,105.48,105.53,21012
386,105.48,105.51,105.47,105.51,9431
387,105.5,105.51,105.46,105.49,10935
388,105.52,105.54,105.49,105.52,15750
389,105.55,105.56,105.49,105.5,12172
390,105.48,105.57,105.42,105.54,26461
