PPG,PPG Industries,Materials,8,Specialty Chemicals,28706886898,1136602
a1499617800,108.0700,108.0700,108.0700,108.0700,5059
1,108.1700,108.4200,108.1700,108.4200,1254
2,108.4000,108.4000,108.4000,108.4000,100
4,108.3400,108.4200,108.3400,108.4000,300
5,108.4100,108.4600,108.4100,108.4600,530
6,108.4700,108.4700,108.4400,108.4400,200
7,108.4500,108.6150,108.4500,108.5500,1200
9,108.4800,108.5600,108.4700,108.4700,500
10,108.4500,108.5800,108.4500,108.5000,400
11,108.4400,108.4400,108.4400,108.4400,100
12,108.4751,108.5300,108.4751,108.5300,200
13,108.5400,108.6200,108.4850,108.5500,2325
14,108.6100,108.6400,108.5250,108.6150,1275
15,108.6100,108.7000,108.6100,108.6500,1962
16,108.6900,108.6900,108.6750,108.6750,200
17,108.7100,108.7100,108.5700,108.6800,900
18,108.6200,108.6500,108.5600,108.5600,500
19,108.5400,108.5848,108.5200,108.5500,1100
20,108.5200,108.6200,108.5200,108.6100,1200
21,108.5500,108.5800,108.4700,108.5800,2000
22,108.4700,108.5100,108.4600,108.4600,400
23,108.4400,108.5700,108.4400,108.5700,300
24,108.5700,108.5700,108.5200,108.5250,3350
25,108.5800,108.5800,108.5200,108.5500,26000
26,108.5500,108.5700,108.5200,108.5700,2169
27,108.5100,108.5600,108.5000,108.5600,900
28,108.5000,108.5000,108.4700,108.4700,500
29,108.4350,108.4350,108.3900,108.3900,500
30,108.3500,108.4200,108.3000,108.3000,700
31,108.3200,108.3350,108.3200,108.3350,200
32,108.3502,108.3502,108.2750,108.2750,200
33,108.2900,108.3600,108.2750,108.3600,25999
34,108.2700,108.3100,108.2700,108.3100,900
35,108.2780,108.2780,108.2780,108.2780,628
36,108.2700,108.2700,108.2400,108.2400,700
37,108.2500,108.2500,108.1700,108.2000,1200
38,108.1900,108.2900,108.1900,108.2900,3864
39,108.3300,108.3700,108.3300,108.3700,700
41,108.3700,108.4900,108.3700,108.4900,700
42,108.4600,108.4600,108.4400,108.4600,652
43,108.4200,108.4200,108.4200,108.4200,100
44,108.4600,108.4800,108.3600,108.4600,5010
45,108.4000,108.4100,108.3900,108.4100,400
46,108.4000,108.4000,108.2950,108.2950,2461
48,108.2803,108.3600,108.2803,108.3600,2000
49,108.3600,108.4000,108.3200,108.4000,12300
51,108.3550,108.3800,108.3300,108.3450,2000
52,108.3800,108.3800,108.3200,108.3200,500
53,108.3200,108.4250,108.3100,108.4050,6641
54,108.3700,108.3900,108.3300,108.3500,3200
55,108.3500,108.4100,108.3300,108.4100,3252
56,108.3500,108.4200,108.3500,108.4200,1400
57,108.5000,108.5000,108.2900,108.3200,10498
58,108.3900,108.5400,108.3800,108.5300,3281
59,108.4700,108.5899,108.4700,108.5550,1100
60,108.5400,108.5400,108.4600,108.5400,53127
61,108.5600,108.6850,108.5600,108.6000,8847
62,108.6000,108.7600,108.5300,108.6850,12964
63,108.6850,108.7191,108.5200,108.6100,11713
64,108.5700,108.5700,108.4900,108.5200,2476
65,108.5199,108.5300,108.4200,108.5200,8142
66,108.5550,108.6000,108.4800,108.4999,20300
68,108.4900,108.6000,108.4900,108.5700,5064
69,108.5500,108.5700,108.5300,108.5300,400
71,108.4600,108.5400,108.4600,108.5400,1900
72,108.5900,108.6700,108.5501,108.6700,6366
73,108.6800,108.7800,108.6300,108.7600,9472
74,108.7800,108.7800,108.6500,108.6650,13400
75,108.6400,108.6400,108.6400,108.6400,375
76,108.6150,108.7800,108.6150,108.7800,2672
77,108.7800,108.8300,108.7500,108.8300,3200
78,108.7710,108.8600,108.7700,108.8300,1700
79,108.7900,108.8100,108.7400,108.7550,2809
80,108.7210,108.7600,108.7100,108.7600,3800
81,108.7800,108.8300,108.7635,108.7950,1509
82,108.8300,108.8300,108.7450,108.8100,2400
83,108.8100,108.8300,108.8100,108.8300,600
84,108.8400,108.9300,108.8300,108.8800,4618
85,108.8900,108.9000,108.8900,108.9000,300
86,108.8800,108.8800,108.8300,108.8600,700
87,108.7800,108.8000,108.7700,108.7700,400
89,108.7100,108.7100,108.6700,108.6700,300
90,108.6700,108.7000,108.6600,108.7000,2425
91,108.7000,108.7500,108.7000,108.7500,2000
92,108.7700,108.7700,108.7194,108.7550,15400
93,108.7700,108.8300,108.7700,108.8100,1838
94,108.8100,108.8300,108.8000,108.8300,1500
95,108.8500,108.8900,108.8400,108.8600,900
96,108.8900,108.8900,108.8500,108.8700,1300
97,108.8800,108.8900,108.8650,108.8650,2100
99,108.8150,108.8700,108.8150,108.8673,600
100,108.8700,108.9200,108.7600,108.8500,35668
101,108.8600,108.9800,108.8600,108.9500,2500
102,108.9700,109.0000,108.9401,109.0000,1021
103,108.9500,108.9800,108.9400,108.9400,300
104,108.9400,108.9400,108.8700,108.8700,1600
105,108.8900,108.9100,108.8500,108.8500,1600
106,108.9100,108.9500,108.8749,108.9500,1500
107,108.9500,108.9500,108.9200,108.9500,500
108,108.9500,108.9800,108.9500,108.9500,1534
109,108.9400,108.9400,108.9200,108.9400,800
111,108.9300,109.0000,108.9300,108.9700,2677
112,108.9350,108.9350,108.9100,108.9300,300
113,108.9214,108.9214,108.8800,108.8800,900
114,108.8800,108.9400,108.8800,108.9400,700
115,108.9500,108.9900,108.9400,108.9900,800
116,108.9900,108.9900,108.9800,108.9800,300
117,108.9750,109.0000,108.9750,109.0000,300
118,109.0000,109.0900,109.0000,109.0900,1395
119,109.0576,109.1500,109.0576,109.1500,2800
120,109.1500,109.1500,109.1500,109.1500,200
121,109.1250,109.1600,109.0500,109.0900,3100
122,109.1100,109.2300,109.1100,109.2300,1230
123,109.2600,109.4300,109.2300,109.4300,5600
124,109.4400,109.4400,109.4042,109.4400,327
125,109.3900,109.3900,109.3000,109.3000,51400
126,109.2700,109.2700,109.1800,109.1800,1200
127,109.1500,109.2200,109.1500,109.2200,800
128,109.2200,109.2200,109.1600,109.1600,200
129,109.1500,109.1500,109.1180,109.1400,1615
132,109.1000,109.1600,109.1000,109.1600,300
134,109.1500,109.1600,109.1200,109.1600,400
135,109.1500,109.2099,109.1500,109.2099,2500
136,109.2100,109.2200,109.1900,109.2100,1800
137,109.2100,109.2100,109.2100,109.2100,300
138,109.2300,109.2300,109.2000,109.2000,300
139,109.1900,109.1900,109.1200,109.1200,1000
140,109.1700,109.1700,109.1000,109.1200,643
141,109.1600,109.1700,109.1400,109.1700,700
142,109.1900,109.2100,109.1600,109.1600,1500
143,109.1743,109.2100,109.1743,109.1900,2341
144,109.1899,109.1900,109.1200,109.1200,400
145,109.1300,109.1700,109.1300,109.1700,1000
146,109.1450,109.1700,109.1450,109.1700,200
147,109.1700,109.2900,109.1700,109.2900,2357
148,109.2600,109.2800,109.2500,109.2600,800
149,109.2550,109.2700,109.2550,109.2700,400
150,109.2550,109.2550,109.1150,109.1599,4500
151,109.1200,109.1500,109.1100,109.1300,900
152,109.1300,109.1300,109.1300,109.1300,100
153,109.0900,109.1750,109.0900,109.1500,4108
154,109.1600,109.2900,109.1600,109.2700,1100
155,109.2900,109.2900,109.2329,109.2329,1372
156,109.2200,109.2200,109.2200,109.2200,100
157,109.2150,109.2400,109.2000,109.2400,2000
159,109.2150,109.2150,109.2150,109.2150,100
160,109.1800,109.1800,109.1800,109.1800,100
161,109.1500,109.1500,109.0300,109.1400,3700
162,109.1800,109.1900,108.9900,109.1800,12768
163,109.2099,109.2299,109.1600,109.2299,2700
164,109.2300,109.2520,109.2300,109.2520,718
165,109.2628,109.3200,109.2500,109.3161,1900
166,109.2950,109.3350,109.2950,109.3350,400
167,109.4000,109.5200,109.3900,109.4600,4996
168,109.4900,109.5500,109.4800,109.4800,2568
169,109.4700,109.5199,109.4400,109.5199,2245
170,109.4700,109.4900,109.4700,109.4900,300
171,109.5000,109.5000,109.5000,109.5000,100
172,109.5100,109.5300,109.4900,109.5100,1900
173,109.4900,109.5299,109.4900,109.5299,300
174,109.5000,109.5000,109.5000,109.5000,200
176,109.4200,109.4300,109.3900,109.3900,500
177,109.4200,109.4800,109.4200,109.4700,1600
178,109.4486,109.4700,109.4300,109.4700,1628
179,109.4300,109.4500,109.4000,109.4000,900
180,109.4600,109.4900,109.4500,109.4900,1150
182,109.4600,109.5300,109.4487,109.5000,4862
183,109.5200,109.5950,109.5200,109.5950,4001
184,109.6000,109.6650,109.6000,109.6400,2900
185,109.6500,109.6700,109.6100,109.6400,2700
186,109.6600,109.6600,109.6200,109.6200,1200
187,109.6400,109.6700,109.5500,109.5500,1400
188,109.5200,109.5200,109.4800,109.4900,400
189,109.5000,109.5250,109.5000,109.5250,400
190,109.5500,109.5800,109.5500,109.5600,500
191,109.5900,109.5900,109.5900,109.5900,100
192,109.5648,109.5648,109.5648,109.5648,150
193,109.5400,109.5400,109.5100,109.5100,1200
194,109.5400,109.5400,109.4300,109.4300,400
195,109.3900,109.5400,109.3900,109.5400,1900
196,109.5600,109.5600,109.5300,109.5300,200
197,109.5800,109.5900,109.5800,109.5900,200
198,109.6000,109.6500,109.5800,109.5800,400
199,109.5400,109.5999,109.5400,109.5400,600
200,109.5800,109.5900,109.5100,109.5500,500
203,109.5600,109.5700,109.5000,109.5350,500
204,109.5600,109.5600,109.4700,109.4700,700
205,109.5500,109.5500,109.5500,109.5500,100
206,109.5200,109.5400,109.4800,109.5400,5100
207,109.4900,109.6100,109.4900,109.6100,27942
208,109.5800,109.6000,109.5000,109.5500,9280
209,109.5800,109.6400,109.5800,109.6000,1000
211,109.5700,109.6400,109.5200,109.5200,5899
212,109.5500,109.6300,109.5500,109.6000,1150
213,109.6300,109.6400,109.6300,109.6400,628
214,109.6400,109.6500,109.6400,109.6500,799
215,109.6500,109.6500,109.6500,109.6500,211
216,109.6800,109.6800,109.6197,109.6700,613
217,109.6200,109.6400,109.6100,109.6400,490
218,109.6300,109.6300,109.6300,109.6300,100
219,109.6100,109.6250,109.5700,109.5700,1200
220,109.5900,109.6300,109.5900,109.6300,1000
221,109.6300,109.6400,109.6000,109.6350,9807
222,109.6450,109.7300,109.6450,109.7100,4857
223,109.7300,109.7400,109.7000,109.7200,2700
224,109.7350,109.7900,109.7329,109.7900,2500
225,109.7700,109.8299,109.7600,109.8100,1627
226,109.7900,109.8100,109.7900,109.8100,200
228,109.7800,109.7800,109.6500,109.6850,6202
229,109.6500,109.6900,109.6500,109.6900,1200
230,109.6600,109.6850,109.6600,109.6850,1200
231,109.6700,109.6700,109.6000,109.6000,2691
232,109.5600,109.5600,109.5000,109.5400,5848
233,109.5200,109.5500,109.4600,109.5500,2190
234,109.5399,109.5500,109.4800,109.5000,5061
235,109.5200,109.5300,109.5200,109.5300,500
236,109.4900,109.5000,109.4700,109.4700,620
237,109.4700,109.4750,109.4493,109.4493,675
238,109.4700,109.5600,109.4500,109.5150,7328
239,109.4900,109.5300,109.4800,109.5050,3600
240,109.4950,109.6000,109.4950,109.6000,8500
241,109.5900,109.5900,109.5000,109.5600,1400
242,109.5600,109.5600,109.4900,109.4900,1020
243,109.5100,109.5900,109.5000,109.5000,5739
244,109.5200,109.5500,109.5000,109.5500,900
245,109.4900,109.5500,109.4900,109.5200,2100
246,109.5500,109.5800,109.5500,109.5500,4700
247,109.5500,109.6200,109.5500,109.6001,2600
248,109.6300,109.6300,109.6100,109.6299,403
249,109.5800,109.6100,109.5800,109.6100,300
250,109.5500,109.5900,109.5300,109.5600,5890
251,109.5600,109.6800,109.5600,109.6800,3318
252,109.6800,109.6900,109.5800,109.5900,3900
253,109.5800,109.5800,109.5000,109.5500,4470
254,109.5000,109.5500,109.4900,109.4900,1120
255,109.5500,109.5800,109.5100,109.5600,1400
256,109.5700,109.6000,109.5500,109.5900,1600
257,109.5400,109.5500,109.5300,109.5500,1000
258,109.5400,109.6100,109.5400,109.5900,9600
259,109.5900,109.6500,109.5600,109.5800,9830
260,109.5800,109.6000,109.5600,109.5800,2100
261,109.6100,109.6200,109.6100,109.6200,500
262,109.6400,109.6600,109.6400,109.6400,801
263,109.6700,109.7250,109.6700,109.7250,850
264,109.7000,109.7000,109.5800,109.5800,3100
265,109.5500,109.5800,109.5500,109.5600,3800
266,109.5600,109.5800,109.5600,109.5800,900
267,109.6000,109.6200,109.5500,109.5600,3800
268,109.5750,109.5750,109.4600,109.5000,5350
269,109.5000,109.5450,109.4700,109.4800,9900
270,109.4700,109.4950,109.4700,109.4700,600
271,109.4700,109.5200,109.4700,109.5200,7836
272,109.5150,109.5150,109.4800,109.4800,2460
273,109.4900,109.5037,109.4700,109.4900,2698
274,109.4700,109.5300,109.4700,109.4700,4653
275,109.5200,109.5200,109.4800,109.5050,1600
276,109.5000,109.5500,109.4700,109.4700,6097
277,109.4900,109.4900,109.4400,109.4650,1019
278,109.4700,109.4900,109.4500,109.4850,2700
279,109.4874,109.4874,109.4200,109.4200,3094
280,109.4100,109.4300,109.3900,109.3900,1400
281,109.4200,109.4300,109.4000,109.4200,1300
282,109.4300,109.4500,109.4000,109.4250,1100
283,109.4250,109.4250,109.4000,109.4100,500
284,109.4000,109.5500,109.3500,109.5500,11813
285,109.5500,109.5800,109.5500,109.5800,3092
286,109.5800,109.6500,109.5800,109.6500,1750
287,109.6700,109.6900,109.6200,109.6799,8256
288,109.6600,109.6900,109.6400,109.6900,3997
289,109.6500,109.6800,109.6200,109.6500,3380
290,109.6450,109.7300,109.6300,109.7000,12297
291,109.6950,109.7800,109.6700,109.7800,6275
292,109.7900,109.8800,109.7900,109.8600,2867
293,109.8600,109.8600,109.7200,109.7400,8364
294,109.7100,109.7500,109.7000,109.7250,1000
295,109.7062,109.7062,109.6500,109.6700,2894
296,109.6750,109.7100,109.6750,109.7100,2500
297,109.6620,109.6620,109.6620,109.6620,265
298,109.6000,109.6800,109.5900,109.6500,2500
299,109.6100,109.6150,109.5900,109.5900,1000
300,109.5900,109.5950,109.5600,109.5600,2400
301,109.5600,109.5750,109.4900,109.5025,1700
302,109.5000,109.6350,109.5000,109.6300,3812
303,109.6300,109.6600,109.6000,109.6500,13735
304,109.6300,109.6600,109.6100,109.6600,2350
305,109.6100,109.6300,109.5900,109.6300,3100
306,109.6300,109.6400,109.6000,109.6050,3115
307,109.5800,109.6000,109.5700,109.5850,6800
308,109.5900,109.6000,109.4600,109.4650,3370
309,109.4700,109.4750,109.3400,109.3500,2300
310,109.3500,109.3900,109.3500,109.3850,1321
311,109.3600,109.3800,109.3200,109.3300,1400
312,109.3300,109.3300,109.2700,109.3100,2200
313,109.2900,109.3100,109.2900,109.3100,700
314,109.3100,109.5100,109.3000,109.5100,14318
315,109.5100,109.5900,109.4800,109.4800,10358
316,109.4900,109.4900,109.3700,109.4400,5198
317,109.3900,109.4400,109.3600,109.4400,2000
318,109.4600,109.5500,109.4500,109.5500,3400
319,109.5000,109.6100,109.5000,109.6100,5100
320,109.6000,109.6500,109.5200,109.5300,4500
321,109.5200,109.6100,109.5200,109.5700,3008
322,109.4700,109.5400,109.4500,109.5100,4205
323,109.4900,109.5500,109.4700,109.4800,3816
324,109.4900,109.5500,109.4500,109.5500,3187
325,109.5600,109.6100,109.5100,109.6000,2800
326,109.6100,109.6200,109.5400,109.5400,2800
327,109.5800,109.6200,109.5200,109.6100,8650
328,109.6350,109.6500,109.6000,109.6250,1100
329,109.6000,109.6250,109.4730,109.4730,1800
330,109.4750,109.5600,109.4750,109.5300,2100
331,109.5400,109.5500,109.5200,109.5500,2898
332,109.5500,109.6400,109.5500,109.6300,1860
333,109.6100,109.6600,109.6000,109.6200,2200
334,109.6500,109.6800,109.6000,109.6400,4739
335,109.6100,109.6100,109.5100,109.5100,900
336,109.5600,109.5800,109.5100,109.5100,500
337,109.5400,109.5400,109.4600,109.5000,2500
338,109.5100,109.5200,109.4700,109.5000,999
339,109.4800,109.5150,109.4500,109.4900,4907
340,109.5200,109.5400,109.4700,109.5400,3885
341,109.5200,109.5700,109.5000,109.5500,2600
342,109.5300,109.5700,109.5300,109.5400,600
343,109.5500,109.5600,109.4900,109.4900,3200
344,109.4900,109.4900,109.4500,109.4600,1300
345,109.4500,109.4900,109.4500,109.4750,700
346,109.4900,109.5000,109.4700,109.4900,2501
347,109.5000,109.5100,109.4600,109.4600,7050
348,109.4700,109.4800,109.3900,109.3900,4515
349,109.3900,109.4700,109.3850,109.4600,3465
350,109.4650,109.5600,109.4650,109.5500,2500
351,109.5500,109.5700,109.5300,109.5540,3900
352,109.5500,109.6450,109.5495,109.6200,5050
353,109.5850,109.6400,109.5850,109.6100,2941
354,109.6000,109.6000,109.5300,109.5300,1300
355,109.5100,109.5650,109.5060,109.5650,1868
356,109.5650,109.5800,109.5300,109.5300,1669
357,109.5500,109.5800,109.5400,109.5400,500
358,109.5400,109.5600,109.5300,109.5400,1200
359,109.5200,109.5800,109.5200,109.5700,2332
360,109.5700,109.6700,109.5600,109.6700,4068
361,109.6500,109.6500,109.5100,109.5100,2624
362,109.5200,109.5200,109.4600,109.4900,1550
363,109.4800,109.5400,109.4800,109.5100,3751
364,109.4800,109.4900,109.4600,109.4900,2750
365,109.4900,109.5650,109.4900,109.5500,4126
366,109.5590,109.5590,109.5300,109.5400,2100
367,109.5200,109.5400,109.5200,109.5300,2116
368,109.5300,109.5300,109.4700,109.5200,2800
369,109.5500,109.5800,109.5305,109.5800,500
370,109.5900,109.5900,109.5300,109.5300,1650
371,109.5000,109.5000,109.4400,109.4800,3030
372,109.4700,109.4900,109.4500,109.4850,2400
373,109.4800,109.4800,109.4100,109.4600,3773
374,109.4700,109.4900,109.4200,109.4900,10108
375,109.4700,109.5800,109.4600,109.5700,6300
376,109.5900,109.6600,109.5900,109.6100,4949
377,109.6000,109.6200,109.5600,109.6100,6800
378,109.6100,109.6400,109.5900,109.6100,6833
379,109.6100,109.6100,109.5600,109.5800,3800
380,109.5800,109.6500,109.5800,109.6400,9850
381,109.6500,109.8100,109.6450,109.7700,7600
382,109.7600,109.8100,109.7600,109.8100,6271
383,109.8100,109.8600,109.8100,109.8400,9602
384,109.8300,109.8700,109.8200,109.8700,11000
385,109.8750,109.9000,109.8400,109.8900,9712
386,109.8900,109.8900,109.8450,109.8550,14855
387,109.8400,109.8800,109.8200,109.8800,13461
388,109.8800,109.9100,109.8500,109.8700,15867
389,109.8700,109.8800,109.8300,109.8500,15467
390,109.8500,109.9200,109.8400,109.8500,26604