EOG,EOG Resources,Energy,3,Oil & Gas Exploration & Production,51082223444,3205779
a1496669400,89.12,89.2,89.12,89.12,15674
1,89.12,89.17,89,89.07,6256
2,89.2276,89.2397,89.09,89.09,16140
3,89.56,89.56,89.17,89.21,9140
4,89.1,89.501,88.9901,89.501,20263
5,89.12,89.26,89,89.1082,10499
6,89.33,89.33,89.07,89.12,5100
7,89.42,89.43,89.31,89.33,4115
8,89.1872,89.35,89.16,89.305,4779
9,89.03,89.208,89.01,89.208,4484
10,89.11,89.14,89.025,89.08,14937
11,89.35,89.35,89.13,89.15,11601
12,89.23,89.4,89.19,89.31,8740
13,89.3,89.32,89.21,89.24,1800
14,89.23,89.3704,89.23,89.3704,1100
15,89.05,89.2958,89.05,89.24,4117
16,89.02,89.17,89.02,89.11,6241
17,88.87,89.025,88.87,89.025,3835
18,88.95,88.96,88.87,88.89,2500
19,88.88,88.95,88.88,88.95,2656
20,88.835,88.85,88.76,88.85,6311
21,88.88,88.905,88.835,88.85,7400
22,88.93,88.93,88.83,88.88,5051
23,89.05,89.05,88.92,88.92,6351
24,89.05,89.1,89.05,89.07,2400
25,89.085,89.1,89.05,89.05,5200
26,89.02,89.14,88.99,89.1,7300
27,88.95,89,88.95,89,601
28,89.14,89.14,88.94,88.94,7272
29,89.2,89.21,89.125,89.125,5200
30,89.19,89.21,89.16,89.19,1700
31,89.305,89.31,89.19,89.19,10916
32,89.38,89.38,89.31,89.31,2341
33,89.47,89.51,89.375,89.375,11061
34,89.55,89.56,89.48,89.49,3831
35,89.43,89.55,89.42,89.55,5100
36,89.47,89.47,89.39,89.42,3218
37,89.51,89.51,89.4152,89.44,3950
38,89.54,89.6,89.535,89.57,5078
39,89.61,89.624,89.56,89.57,4400
40,89.53,89.63,89.53,89.63,4037
41,89.44,89.55,89.44,89.52,5056
42,89.44,89.5,89.43,89.445,2616
43,89.38,89.43,89.38,89.43,2274
44,89.39,89.39,89.305,89.37,4499
45,89.46,89.46,89.4,89.4,1000
46,89.52,89.52,89.42,89.44,3001
47,89.47,89.55,89.47,89.52,2416
48,89.45,89.47,89.45,89.47,500
49,89.35,89.46,89.35,89.44,1800
50,89.32,89.34,89.32,89.34,400
51,89.28,89.295,89.23,89.2815,5045
52,89.26,89.29,89.26,89.265,1600
53,89.24,89.28,89.24,89.24,1800
54,89.17,89.23,89.17,89.23,1450
55,89.21,89.23,89.175,89.175,3132
56,89.21,89.21,89.18,89.18,600
57,89.44,89.45,89.18,89.18,9671
58,89.37,89.46,89.36,89.45,2500
59,89.32,89.32,89.32,89.32,300
60,89.34,89.38,89.3,89.32,5233
61,89.32,89.39,89.32,89.36,1800
62,89.26,89.33,89.23,89.27,3318
63,89.26,89.26,89.235,89.25,2300
64,89.28,89.29,89.25,89.26,5500
65,89.32,89.32,89.19,89.2429,5670
66,89.31,89.33,89.23,89.33,117200
67,89.39,89.4,89.3,89.31,5700
68,89.35,89.4,89.28,89.39,5084
69,89.2974,89.39,89.2974,89.35,1900
70,89.21,89.28,89.16,89.28,2210
71,89.15,89.21,89.15,89.21,800
72,89.16,89.19,89.16,89.16,1100
73,89.17,89.19,89.154,89.19,2000
74,89.15,89.19,89.13,89.175,3400
75,89.22,89.22,89.12,89.14,3899
76,89.16,89.21,89.13,89.2,2100
77,89.13,89.14,89.13,89.14,500
78,89.09,89.18,89.09,89.13,4483
79,89.16,89.16,89.11,89.11,2600
80,89.13,89.165,89.13,89.165,700
81,89.06,89.145,89.06,89.1411,3106
82,89.021,89.0503,89.021,89.0503,329
83,88.9829,89.04,88.98,89.04,1200
84,88.98,89.02,88.955,88.955,3900
85,88.95,89.01,88.95,88.97,600
86,88.89,88.9531,88.89,88.9531,5451
87,88.82,88.9,88.82,88.9,1800
88,88.8,88.81,88.76,88.81,5726
89,88.81,88.84,88.8,88.8,4700
90,88.8241,88.85,88.82,88.82,4576
91,88.71,88.8,88.7,88.8,5487
92,88.68,88.705,88.64,88.69,6630
93,88.75,88.77,88.68,88.69,9550
94,88.69,88.74,88.67,88.74,1700
95,88.73,88.74,88.67,88.67,1750
96,88.64,88.72,88.63,88.72,2284
97,88.7799,88.79,88.66,88.66,5209
98,88.81,88.81,88.77,88.77,2300
99,88.87,88.95,88.8,88.81,6913
100,88.78,88.8899,88.78,88.8899,1844
101,88.68,88.7902,88.66,88.7902,1603
102,88.645,88.7,88.63,88.66,3012
103,88.69,88.71,88.671,88.69,1842
104,88.73,88.74,88.705,88.71,7507
105,88.705,88.75,88.69,88.735,8200
106,88.65,88.67,88.63,88.67,6851
107,88.67,88.695,88.64,88.67,6938
108,88.62,88.7,88.62,88.69,6909
109,88.65,88.68,88.6,88.6225,7018
110,88.63,88.66,88.63,88.655,500
111,88.6,88.64,88.59,88.59,2650
112,88.67,88.67,88.64,88.64,3999
113,88.71,88.73,88.67,88.67,3200
114,88.73,88.76,88.71,88.73,1700
115,88.675,88.72,88.66,88.72,2100
116,88.67,88.67,88.61,88.65,2182
117,88.6513,88.67,88.63,88.67,650
118,88.5744,88.65,88.55,88.65,2667
119,88.52,88.6,88.52,88.59,4641
120,88.65,88.66,88.52,88.52,5252
121,88.826,88.83,88.68,88.68,6830
122,88.84,88.84,88.79,88.79,2473
123,88.87,88.87,88.84,88.84,800
124,88.8,88.84,88.78,88.84,2300
125,88.84,88.84,88.8,88.82,2400
126,88.85,88.9,88.84,88.84,1257
127,88.8179,88.82,88.8,88.82,2034
128,88.77,88.79,88.73,88.79,1417
129,88.82,88.82,88.7695,88.78,1692
130,88.8531,88.86,88.82,88.84,4133
131,88.91,88.92,88.84,88.84,4185
132,88.91,88.945,88.91,88.92,900
133,88.845,88.929,88.835,88.929,1323
134,88.84,88.85,88.79,88.85,2000
135,88.79,88.84,88.79,88.84,1000
136,88.77,88.8,88.75,88.8,6521
137,88.76,88.78,88.7401,88.755,1800
138,88.76,88.78,88.76,88.77,1000
139,88.8,88.83,88.78,88.78,2000
140,88.74,88.8,88.71,88.78,1800
141,88.76,88.76,88.76,88.76,1204
142,88.8,88.8,88.75,88.75,1791
143,88.8803,88.89,88.8,88.8,2887
144,88.84,88.89,88.84,88.89,1900
145,88.94,88.94,88.85,88.85,2583
146,88.9164,88.98,88.9,88.94,2211
147,88.92,88.92,88.91,88.92,600
148,88.86,88.89,88.85,88.89,2419
149,88.87,88.87,88.865,88.865,600
150,88.93,88.97,88.88,88.88,2550
151,88.95,88.95,88.95,88.95,200
152,88.9498,88.97,88.94,88.95,1301
153,89.02,89.02,88.97,88.97,1918
154,89.05,89.05,89.01,89.0373,1600
155,89.12,89.13,89.07,89.07,1200
156,89.15,89.18,89.15,89.18,1300
157,89.13,89.15,89.1,89.14,2106
158,89.11,89.13,89.11,89.13,200
159,89.24,89.24,89.13,89.13,3500
160,89.22,89.24,89.19,89.22,1193
161,89.2599,89.26,89.22,89.24,1900
162,89.29,89.3,89.21,89.21,2569
163,89.287,89.3,89.287,89.3,284
164,89.29,89.29,89.23,89.27,2500
165,89.336,89.34,89.3,89.3,1225
166,89.3,89.36,89.3,89.34,2125
167,89.32,89.34,89.32,89.34,500
168,89.3,89.33,89.3,89.32,1900
169,89.234,89.31,89.23,89.27,6977
170,89.31,89.31,89.27,89.27,795
171,89.27,89.33,89.27,89.31,2800
172,89.29,89.3,89.25,89.27,2416
173,89.31,89.35,89.31,89.31,2128
174,89.3,89.32,89.28,89.3,1000
175,89.27,89.31,89.27,89.31,2800
176,89.36,89.36,89.28,89.3,3200
177,89.3,89.37,89.3,89.34,2500
178,89.23,89.34,89.23,89.29,4400
179,89.25,89.2735,89.18,89.27,11518
180,89.25,89.28,89.2301,89.28,3952
181,89.32,89.32,89.25,89.25,3411
182,89.3,89.31,89.28,89.29,1100
183,89.29,89.33,89.29,89.33,1900
184,89.31,89.34,89.31,89.34,600
185,89.26,89.33,89.24,89.31,4307
186,89.35,89.35,89.27,89.27,2300
187,89.3,89.33,89.3,89.33,1567
188,89.35,89.35,89.32,89.32,1100
189,89.27,89.3437,89.27,89.3437,2870
190,89.25,89.27,89.24,89.27,400
191,89.23,89.28,89.2,89.25,4419
192,89.25,89.3,89.22,89.22,2200
193,89.29,89.31,89.27,89.28,2400
194,89.27,89.33,89.27,89.315,1335
195,89.33,89.33,89.27,89.29,1900
196,89.29,89.34,89.29,89.34,714
197,89.24,89.28,89.24,89.28,900
198,89.25,89.25,89.22,89.24,2394
199,89.22,89.25,89.22,89.25,1502
200,89.26,89.29,89.25,89.26,2100
201,89.31,89.365,89.28,89.29,4497
202,89.29,89.33,89.29,89.29,1400
203,89.29,89.32,89.29,89.32,891
204,89.2925,89.32,89.28,89.3,1550
205,89.23,89.3,89.23,89.28,4613
206,89.28,89.28,89.21,89.22,1580
207,89.31,89.32,89.27,89.27,2400
208,89.26,89.32,89.26,89.32,900
209,89.345,89.36,89.26,89.26,2200
210,89.32,89.37,89.28,89.37,2400
211,89.32,89.34,89.27,89.34,2750
212,89.4,89.4,89.32,89.32,1900
213,89.43,89.46,89.41,89.44,4588
214,89.44,89.44,89.4148,89.43,500
215,89.45,89.45,89.4,89.42,2500
216,89.35,89.42,89.35,89.42,2047
217,89.34,89.34,89.32,89.34,2412
218,89.37,89.44,89.36,89.36,1798
219,89.35,89.41,89.35,89.38,1600
220,89.34,89.37,89.32,89.35,1000
221,89.33,89.359,89.33,89.33,745
222,89.34,89.34,89.29,89.32,4300
223,89.39,89.39,89.33,89.34,5924
224,89.38,89.385,89.325,89.385,1500
225,89.43,89.47,89.37,89.39,3590
226,89.44,89.44,89.35,89.4156,4804
227,89.43,89.47,89.42,89.45,2400
228,89.41,89.42,89.39,89.41,1000
229,89.38,89.41,89.3759,89.3759,350
230,89.37,89.4,89.37,89.4,800
231,89.42,89.43,89.37,89.3875,6356
232,89.46,89.46,89.44,89.45,4200
233,89.45,89.48,89.42,89.46,9250
234,89.4375,89.52,89.43,89.45,5570
235,89.47,89.5,89.44,89.44,8516
236,89.4525,89.48,89.45,89.47,1900
237,89.44,89.47,89.42,89.45,8496
238,89.48,89.5,89.42,89.42,4749
239,89.48,89.5,89.45,89.5,8500
240,89.4925,89.5,89.4738,89.49,2647
241,89.415,89.5,89.415,89.5,6436
242,89.445,89.46,89.41,89.425,4550
243,89.42,89.45,89.39,89.445,5060
244,89.41,89.44,89.38,89.41,6100
245,89.38,89.42,89.36,89.41,7500
246,89.42,89.4355,89.39,89.39,1000
247,89.42,89.42,89.39,89.41,1400
248,89.39,89.41,89.39,89.41,400
249,89.44,89.46,89.41,89.41,2550
250,89.46,89.46,89.42,89.44,1950
251,89.43,89.47,89.35,89.47,7408
252,89.3975,89.43,89.39,89.42,1025
253,89.3894,89.42,89.37,89.37,3328
254,89.395,89.425,89.39,89.4,2800
255,89.4,89.42,89.38,89.4037,1226
256,89.39,89.4,89.39,89.39,600
257,89.37,89.4,89.37,89.38,2110
258,89.38,89.41,89.36,89.4,1800
259,89.34,89.36,89.34,89.36,992
260,89.36,89.36,89.33,89.34,1600
261,89.36,89.39,89.36,89.36,1895
262,89.39,89.39,89.36,89.38,876
263,89.38,89.42,89.38,89.39,3750
264,89.39,89.39,89.3599,89.39,2780
265,89.37,89.39,89.37,89.39,900
266,89.42,89.42,89.37,89.4,1880
267,89.45,89.47,89.42,89.43,2300
268,89.45,89.46,89.44,89.44,500
269,89.49,89.5,89.4253,89.5,2764
270,89.48,89.48,89.45,89.48,1220
271,89.48,89.5,89.47,89.49,1700
272,89.55,89.55,89.52,89.52,1238
273,89.53,89.55,89.53,89.54,900
274,89.505,89.53,89.49,89.52,2100
275,89.51,89.54,89.5,89.52,2000
276,89.47,89.53,89.47,89.53,900
277,89.48,89.51,89.45,89.46,3812
278,89.48,89.48,89.45,89.48,2900
279,89.43,89.48,89.43,89.465,2202
280,89.4,89.42,89.36,89.42,2000
281,89.36,89.4,89.34,89.395,3677
282,89.39,89.39,89.36,89.375,800
283,89.38,89.41,89.37,89.385,4001
284,89.36,89.38,89.345,89.38,1800
285,89.37,89.38,89.34,89.38,3399
286,89.37,89.42,89.35,89.38,2767
287,89.35,89.36,89.34,89.35,900
288,89.36,89.36,89.31,89.36,7484
289,89.32,89.34,89.28,89.33,11553
290,89.3503,89.36,89.32,89.32,3664
291,89.33,89.355,89.295,89.35,6326
292,89.29,89.315,89.29,89.315,800
293,89.255,89.34,89.25,89.32,6060
294,89.38,89.38,89.27,89.28,4000
295,89.39,89.41,89.36,89.37,4542
296,89.35,89.41,89.35,89.3886,3011
297,89.33,89.39,89.31,89.3447,2804
298,89.38,89.38,89.31,89.31,2100
299,89.3959,89.41,89.38,89.38,2665
300,89.38,89.43,89.38,89.38,6828
301,89.38,89.4,89.38,89.39,1500
302,89.36,89.37,89.33,89.3575,1850
303,89.32,89.3628,89.32,89.34,6577
304,89.315,89.36,89.3,89.33,2901
305,89.33,89.33,89.295,89.3075,3552
306,89.34,89.34,89.31,89.31,1900
307,89.35,89.35,89.32,89.34,2894
308,89.335,89.35,89.31,89.33,3400
309,89.4,89.41,89.335,89.335,9490
310,89.46,89.47,89.4,89.4,4000
311,89.44,89.47,89.42,89.47,3500
312,89.41,89.44,89.41,89.41,1310
313,89.38,89.44,89.37,89.44,7365
314,89.36,89.42,89.36,89.4,4600
315,89.37,89.39,89.36,89.37,5500
316,89.33,89.39,89.33,89.365,4375
317,89.325,89.36,89.31,89.34,3631
318,89.27,89.31,89.27,89.31,11775
319,89.29,89.33,89.28,89.28,9422
320,89.26,89.29,89.26,89.29,1400
321,89.26,89.27,89.23,89.26,8840
322,89.26,89.26,89.24,89.255,1700
323,89.29,89.31,89.26,89.26,3400
324,89.255,89.29,89.25,89.29,2152
325,89.27,89.3,89.27,89.27,2650
326,89.27,89.28,89.25,89.28,2700
327,89.22,89.29,89.2,89.28,33392
328,89.32,89.32,89.22,89.24,6775
329,89.3354,89.35,89.32,89.34,2600
330,89.36,89.37,89.35,89.35,1000
331,89.46,89.46,89.37,89.37,2405
332,89.45,89.46,89.41,89.43,3350
333,89.445,89.4605,89.43,89.4605,1230
334,89.45,89.45,89.41,89.43,2300
335,89.37,89.445,89.35,89.43,4200
336,89.4,89.4,89.37,89.38,700
337,89.44,89.45,89.41,89.41,2000
338,89.39,89.41,89.38,89.41,2426
339,89.42,89.42,89.38,89.39,1807
340,89.43,89.44,89.4,89.44,1769
341,89.4,89.41,89.39,89.4,1600
342,89.4,89.44,89.4,89.4,7550
343,89.47,89.47,89.41,89.41,3704
344,89.5,89.5,89.47,89.47,4000
345,89.48,89.5,89.48,89.49,3100
346,89.47,89.49,89.46,89.49,4735
347,89.47,89.49,89.46,89.48,7354
348,89.46,89.475,89.44,89.475,5438
349,89.42,89.455,89.42,89.45,7412
350,89.45,89.45,89.4276,89.44,4320
351,89.4387,89.45,89.4387,89.44,1650
352,89.47,89.47,89.4399,89.45,12468
353,89.41,89.465,89.38,89.46,12308
354,89.42,89.42,89.405,89.41,2600
355,89.4299,89.44,89.4,89.43,13879
356,89.44,89.45,89.43,89.43,2300
357,89.42,89.45,89.42,89.45,3861
358,89.42,89.43,89.41,89.415,2423
359,89.39,89.405,89.375,89.4,5100
360,89.46,89.46,89.38,89.38,7287
361,89.46,89.46,89.44,89.45,3620
362,89.455,89.46,89.45,89.46,2210
363,89.435,89.47,89.43,89.45,8719
364,89.405,89.44,89.4,89.43,9744
365,89.38,89.4,89.38,89.395,6469
366,89.41,89.42,89.39,89.39,8310
367,89.38,89.41,89.38,89.405,2422
368,89.4,89.4,89.385,89.385,5017
369,89.32,89.4,89.32,89.4,8516
370,89.335,89.35,89.32,89.33,5617
371,89.35,89.35,89.31,89.34,13017
372,89.29,89.35,89.29,89.35,8560
373,89.3,89.305,89.26,89.3,11523
374,89.3,89.32,89.3,89.3,6867
375,89.29,89.32,89.27,89.295,16222
376,89.31,89.32,89.28,89.3,13585
377,89.31,89.33,89.28,89.32,11826
378,89.27,89.31,89.26,89.31,14808
379,89.17,89.28,89.17,89.26,32216
380,89.2,89.22,89.17,89.17,14535
381,89.24,89.245,89.2,89.2,12990
382,89.27,89.27,89.24,89.245,15199
383,89.3,89.3,89.26,89.265,13616
384,89.265,89.3,89.265,89.29,19431
385,89.23,89.27,89.23,89.26,11346
386,89.22,89.2382,89.19,89.235,21802
387,89.23,89.24,89.215,89.215,19249
388,89.24,89.24,89.22,89.225,12149
389,89.14,89.24,89.13,89.23,29184
390,89.21,89.22,89.14,89.14,33179
