PPG,PPG Industries,Materials,8,Specialty Chemicals,28081936917,1212728
a1496669400,110.37,110.37,110,110,11880
1,110.175,110.375,110.175,110.375,200
2,110.13,110.13,110,110.01,2100
3,109.99,110.08,109.815,110.07,1200
4,109.93,109.93,109.81,109.81,200
5,109.845,109.885,109.8,109.8,400
6,109.84,109.96,109.78,109.88,9655
7,109.92,109.92,109.87,109.87,2100
8,109.91,110.065,109.86,109.91,6600
9,109.97,110.02,109.865,109.94,3250
10,109.97,110.09,109.88,109.98,10206
11,109.93,109.95,109.81,109.94,4760
12,109.875,109.99,109.87,109.99,1400
13,109.83,109.95,109.83,109.86,2850
16,109.79,109.815,109.78,109.815,1200
17,109.65,109.745,109.65,109.745,520
18,109.67,109.68,109.64,109.65,1411
19,109.635,109.635,109.635,109.635,100
20,109.65,109.66,109.63,109.63,400
21,109.64,109.64,109.64,109.64,500
22,109.53,109.64,109.53,109.64,1740
23,109.48,109.54,109.48,109.54,870
24,109.46,109.52,109.41,109.465,5027
25,109.53,109.6,109.48,109.49,2450
28,109.6375,109.64,109.578,109.578,2023
29,109.64,109.65,109.64,109.65,500
30,109.62,109.635,109.62,109.635,1225
31,109.6,109.6,109.5425,109.59,2584
32,109.64,109.64,109.595,109.595,881
33,109.61,109.635,109.5864,109.6329,1491
34,109.6,109.62,109.6,109.61,1250
35,109.6,109.62,109.6,109.6,1000
36,109.57,109.615,109.57,109.61,500
37,109.56,109.59,109.54,109.57,2900
38,109.59,109.59,109.56,109.56,880
39,109.615,109.62,109.59,109.6,894
40,109.63,109.63,109.6,109.6,600
41,109.61,109.64,109.61,109.64,968
42,109.585,109.625,109.58,109.61,1300
43,109.59,109.6,109.58,109.58,1000
44,109.59,109.59,109.575,109.575,200
45,109.58,109.62,109.58,109.58,2498
46,109.64,109.64,109.6,109.61,2256
47,109.68,109.68,109.66,109.66,200
48,109.65,109.68,109.65,109.66,1400
49,109.6535,109.6535,109.63,109.63,775
50,109.62,109.63,109.62,109.63,600
51,109.62,109.62,109.59,109.615,1200
52,109.66,109.68,109.58,109.605,5553
53,109.66,109.66,109.66,109.66,100
54,109.62,109.66,109.62,109.64,874
55,109.65,109.65,109.64,109.64,900
57,109.67,109.67,109.67,109.67,300
58,109.645,109.68,109.63,109.67,3291
60,109.6,109.665,109.6,109.65,2300
61,109.61,109.61,109.61,109.61,200
62,109.615,109.62,109.6075,109.6075,554
63,109.615,109.67,109.615,109.615,4391
66,109.64,109.64,109.63,109.63,764
68,109.585,109.63,109.57,109.63,3949
69,109.58,109.58,109.58,109.58,200
71,109.575,109.61,109.56,109.6,2449
72,109.575,109.575,109.575,109.575,200
73,109.565,109.59,109.565,109.58,2601
74,109.565,109.565,109.565,109.565,100
75,109.59,109.59,109.55,109.55,1172
76,109.6,109.6,109.6,109.6,674
77,109.58,109.59,109.56,109.59,2561
80,109.5736,109.5736,109.5736,109.5736,600
81,109.485,109.57,109.47,109.56,3510
82,109.475,109.5,109.475,109.49,4200
83,109.425,109.4743,109.425,109.4743,2346
84,109.425,109.425,109.425,109.425,100
85,109.45,109.45,109.41,109.41,800
86,109.39,109.44,109.38,109.43,2300
87,109.3901,109.41,109.38,109.39,1517
88,109.37,109.41,109.37,109.4,1400
89,109.38,109.38,109.38,109.38,963
90,109.3386,109.36,109.33,109.36,1600
91,109.28,109.33,109.27,109.33,4500
92,109.26,109.27,109.25,109.27,1550
93,109.23,109.2678,109.22,109.2678,4129
94,109.23,109.23,109.23,109.23,300
95,109.225,109.24,109.2,109.22,1400
96,109.205,109.225,109.205,109.225,800
97,109.2,109.22,109.2,109.22,450
99,109.16,109.2,109.16,109.2,4723
100,109.15,109.17,109.14,109.16,5458
101,109.19,109.19,109.14,109.14,2749
102,109.2,109.2,109.185,109.185,1323
103,109.24,109.24,109.21,109.21,2400
104,109.22,109.25,109.21,109.25,3500
105,109.2,109.23,109.2,109.22,2300
106,109.19,109.2,109.19,109.2,1600
107,109.16,109.17,109.16,109.17,500
108,109.08,109.13,109.08,109.13,500
109,109.0825,109.0825,109.0825,109.0825,520
110,109.04,109.07,109.04,109.05,800
111,109.045,109.06,109.03,109.04,2675
112,109.01,109.045,108.97,109.045,1990
113,109.05,109.05,109.01,109.01,1300
114,109.065,109.08,109.04,109.06,2200
115,109.05,109.06,109.045,109.06,800
116,108.97,109.0525,108.97,109.05,1400
117,108.94,108.95,108.94,108.94,600
118,108.94,108.94,108.94,108.94,300
119,108.9,108.96,108.9,108.95,2808
120,108.92,108.93,108.895,108.895,1726
121,108.98,108.98,108.925,108.93,2189
122,108.92,108.98,108.92,108.98,1426
123,108.94,108.94,108.915,108.93,800
124,108.92,108.94,108.92,108.94,1300
125,108.9248,108.9248,108.9248,108.9248,100
126,108.91,108.94,108.91,108.94,1200
127,108.86,108.9,108.86,108.9,1600
128,108.75,108.83,108.74,108.83,2400
129,108.73,108.77,108.73,108.76,5100
130,108.78,108.78,108.74,108.74,1200
131,108.76,108.8,108.76,108.79,1882
132,108.77,108.77,108.75,108.75,300
133,108.75,108.76,108.74,108.7525,890
134,108.745,108.76,108.745,108.745,400
135,108.7,108.74,108.665,108.74,2803
136,108.66,108.68,108.66,108.67,1460
137,108.635,108.65,108.635,108.65,600
138,108.59,108.63,108.58,108.63,2850
139,108.615,108.615,108.6,108.6,1193
140,108.57,108.61,108.565,108.61,1259
141,108.54,108.56,108.54,108.56,1700
142,108.53,108.54,108.51,108.53,1100
143,108.55,108.55,108.5,108.52,6837
144,108.58,108.58,108.55,108.55,1301
145,108.59,108.6,108.58,108.58,2285
146,108.61,108.615,108.59,108.59,2050
147,108.67,108.67,108.62,108.62,2949
148,108.655,108.68,108.63,108.68,2900
149,108.665,108.665,108.665,108.665,100
150,108.67,108.71,108.6547,108.6547,2261
152,108.69,108.69,108.69,108.69,100
153,108.715,108.72,108.7,108.7,1600
154,108.71,108.71,108.71,108.71,600
155,108.75,108.79,108.71,108.73,3500
156,108.76,108.79,108.76,108.79,1566
157,108.75,108.755,108.7,108.755,3901
158,108.78,108.81,108.73,108.75,4450
159,108.77,108.78,108.77,108.78,2410
160,108.77,108.77,108.77,108.77,200
161,108.78,108.78,108.77,108.78,1200
162,108.79,108.79,108.78,108.78,1298
163,108.83,108.84,108.78,108.78,1500
164,108.88,108.9,108.84,108.84,1926
165,108.87,108.87,108.87,108.87,400
166,108.82,108.87,108.82,108.87,1200
167,108.85,108.85,108.82,108.82,500
171,108.85,108.85,108.83,108.84,2600
172,108.83,108.84,108.83,108.84,1178
173,108.85,108.85,108.84,108.84,1100
174,108.86,108.87,108.86,108.86,800
175,108.85,108.88,108.84,108.86,1500
176,108.88,108.88,108.86,108.86,400
177,108.86,108.8725,108.86,108.87,1100
178,108.83,108.84,108.83,108.84,1400
179,108.82,108.82,108.82,108.82,100
180,108.86,108.86,108.86,108.86,123
181,108.86,108.86,108.84,108.84,300
182,108.87,108.87,108.87,108.87,500
183,108.87,108.87,108.87,108.87,200
184,108.86,108.86,108.84,108.86,2031
186,108.88,108.88,108.87,108.88,1000
187,108.89,108.89,108.88,108.88,302
188,108.9218,108.9218,108.87,108.87,3099
189,108.93,108.94,108.92,108.93,1500
190,108.96,108.96,108.93,108.93,1200
191,108.96,108.97,108.96,108.97,600
192,109,109,108.97,108.98,550
194,109.03,109.03,109.03,109.03,400
195,109.04,109.04,109.01,109.02,1300
196,109.04,109.04,109.025,109.025,1000
197,109.01,109.0325,109.01,109.03,1600
199,109.03,109.03,109.01,109.01,700
200,109.055,109.06,109.025,109.04,2650
201,109.02,109.06,109.01,109.05,2304
202,108.995,108.995,108.995,108.995,100
203,109,109,109,109,200
204,109.01,109.02,109,109,800
205,109.01,109.04,109.01,109.04,1210
206,108.99,109.01,108.99,109,2632
207,108.98,108.99,108.965,108.99,1552
208,109.02,109.02,108.99,108.99,1350
209,109,109,109,109,100
210,109,109,108.961,108.961,1900
211,109.02,109.03,109,109,1601
212,109.02,109.02,109.02,109.02,100
213,109.02,109.02,109.02,109.02,100
214,109.01,109.02,109.01,109.02,1600
215,109.07,109.07,109.01,109.01,4250
216,109.08,109.08,109.06,109.07,900
217,109.065,109.07,109.05,109.07,4300
218,109.07,109.08,109.07,109.07,1400
219,109.07,109.07,109.06,109.06,3405
220,109.0799,109.08,109.07,109.07,700
221,109.08,109.09,109.0675,109.08,3350
222,109.084,109.084,109.08,109.08,500
223,109.1,109.1,109.08,109.08,600
224,109.1,109.1,109.1,109.1,284
225,109.17,109.2,109.11,109.12,1550
226,109.0984,109.14,109.0984,109.14,1615
227,109.08,109.1,109.06,109.1,1024
228,109.08,109.08,109.06,109.07,2789
229,109.075,109.08,109.07,109.08,5600
230,109.12,109.12,109.08,109.09,2224
231,109.14,109.14,109.115,109.13,1400
232,109.15,109.16,109.14,109.15,500
233,109.17,109.17,109.17,109.17,200
234,109.15,109.17,109.15,109.17,2000
235,109.16,109.16,109.16,109.16,300
236,109.21,109.21,109.16,109.17,1500
237,109.19,109.22,109.19,109.22,400
238,109.1661,109.18,109.1661,109.18,500
239,109.11,109.15,109.1,109.15,1509
240,109.1438,109.16,109.09,109.1,2634
242,109.18,109.18,109.08,109.12,7059
243,109.18,109.18,109.15,109.18,1900
244,109.18,109.18,109.18,109.18,100
245,109.17,109.17,109.17,109.17,100
246,109.11,109.17,109.11,109.17,900
247,109.095,109.12,109.09,109.11,800
248,109.08,109.08,109.08,109.08,100
249,109.11,109.11,109.085,109.09,1500
250,109.12,109.13,109.1,109.1,2041
251,109.12,109.12,109.11,109.12,500
252,109.13,109.13,109.13,109.13,100
253,109.02,109.1,109.02,109.1,1495
254,109.05,109.05,109.05,109.05,100
255,109.0725,109.09,109.0475,109.06,4750
256,109.08,109.08,109.065,109.065,200
257,109.1,109.105,109.07,109.08,2100
258,109.08,109.09,109.055,109.085,3850
259,109.09,109.09,109.09,109.09,200
260,109.07,109.07,109.07,109.07,100
261,109.08,109.08,109.08,109.08,100
262,109.12,109.13,109.09,109.1,2362
263,109.1,109.13,109.1,109.12,2700
264,109.1075,109.11,109.1,109.1,900
265,109.0795,109.12,109.0795,109.09,824
266,109.06,109.06,109.06,109.06,200
267,109,109.07,108.99,109.06,5324
268,108.94,108.97,108.94,108.97,200
269,108.98,108.99,108.95,108.98,900
270,108.95,108.95,108.95,108.95,100
271,108.97,108.99,108.95,108.95,4170
272,108.93,108.96,108.93,108.96,1100
273,108.94,108.95,108.94,108.94,900
274,108.94,108.94,108.88,108.93,2100
275,108.88,108.88,108.88,108.88,235
276,108.86,108.884,108.86,108.88,1030
277,108.805,108.87,108.805,108.86,2100
278,108.79,108.81,108.78,108.8,2450
279,108.77,108.78,108.77,108.78,500
280,108.74,108.77,108.74,108.77,800
281,108.79,108.79,108.74,108.74,3708
282,108.78,108.78,108.7701,108.78,900
283,108.83,108.83,108.79,108.79,2497
284,108.83,108.84,108.83,108.83,600
285,108.83,108.84,108.83,108.84,400
286,108.86,108.86,108.84,108.85,2000
287,108.85,108.86,108.835,108.85,2036
288,108.8501,108.86,108.84,108.85,1400
289,108.86,108.87,108.85,108.85,2000
291,108.87,108.87,108.85,108.85,800
292,108.8825,108.91,108.87,108.87,2300
293,108.875,108.89,108.85,108.89,1800
294,108.9,108.9,108.83,108.85,3091
295,108.8742,108.8825,108.8742,108.88,506
296,108.86,108.88,108.86,108.88,1846
297,108.85,108.88,108.85,108.88,200
298,108.855,108.89,108.85,108.88,3100
299,108.79,108.86,108.79,108.85,2400
300,108.8,108.81,108.79,108.8,1800
301,108.8,108.8,108.79,108.8,400
302,108.775,108.8,108.775,108.8,4198
303,108.75,108.7702,108.75,108.7702,1226
304,108.73,108.76,108.73,108.76,2231
305,108.68,108.72,108.68,108.72,900
306,108.65,108.69,108.65,108.68,4300
307,108.66,108.67,108.65,108.66,2082
308,108.66,108.67,108.65,108.67,400
309,108.66,108.66,108.65,108.6523,1385
310,108.65,108.68,108.6401,108.67,3209
311,108.68,108.68,108.67,108.67,820
312,108.67,108.69,108.67,108.67,1847
313,108.65,108.68,108.65,108.67,400
314,108.64,108.66,108.63,108.66,2608
315,108.62,108.62,108.62,108.62,400
316,108.59,108.65,108.59,108.62,1200
317,108.58,108.605,108.58,108.605,200
318,108.58,108.61,108.58,108.6,1300
319,108.55,108.58,108.55,108.58,4760
320,108.55,108.55,108.54,108.54,1100
321,108.5401,108.55,108.53,108.5301,600
322,108.54,108.55,108.53,108.55,800
323,108.54,108.54,108.505,108.53,4047
324,108.52,108.52,108.52,108.52,300
325,108.495,108.525,108.495,108.52,1512
326,108.45,108.48,108.45,108.48,2650
327,108.45,108.46,108.45,108.46,200
328,108.45,108.45,108.43,108.44,3151
329,108.45,108.46,108.45,108.45,1295
331,108.435,108.45,108.425,108.43,2095
332,108.45,108.45,108.41,108.42,5576
333,108.45,108.45,108.45,108.45,100
334,108.44,108.44,108.42,108.44,1300
335,108.44,108.44,108.425,108.44,1700
336,108.433,108.433,108.43,108.43,425
337,108.42,108.44,108.42,108.43,10115
338,108.43,108.435,108.41,108.415,2600
339,108.45,108.45,108.425,108.425,2790
340,108.45,108.46,108.45,108.46,700
341,108.47,108.47,108.45,108.45,3378
342,108.485,108.49,108.475,108.475,3400
343,108.49,108.49,108.46,108.48,3700
344,108.495,108.5,108.485,108.485,3616
345,108.49,108.5,108.48,108.495,3192
346,108.48,108.49,108.48,108.4801,483
347,108.52,108.53,108.49,108.49,4000
348,108.5,108.53,108.49,108.52,1770
349,108.48,108.48,108.48,108.48,1192
350,108.48,108.49,108.48,108.49,1400
351,108.535,108.535,108.49,108.49,4103
352,108.54,108.54,108.5275,108.53,2476
353,108.53,108.53,108.53,108.53,789
354,108.53,108.54,108.525,108.525,1700
355,108.4686,108.52,108.4686,108.52,2465
356,108.5,108.5,108.47,108.47,3400
357,108.515,108.52,108.5,108.5,2500
358,108.515,108.54,108.515,108.52,2941
359,108.51,108.52,108.51,108.52,1905
360,108.525,108.53,108.51,108.51,3600
361,108.52,108.52,108.5,108.52,3778
362,108.52,108.52,108.5,108.51,2500
363,108.52,108.54,108.51,108.535,2500
364,108.53,108.53,108.515,108.52,1662
365,108.52,108.5375,108.51,108.53,5237
366,108.56,108.56,108.52,108.52,4063
367,108.56,108.565,108.55,108.56,2900
368,108.56,108.57,108.56,108.56,611
369,108.53,108.565,108.53,108.56,7558
370,108.51,108.53,108.51,108.53,2896
371,108.5,108.51,108.49,108.51,2157
372,108.49,108.49,108.4514,108.49,8462
373,108.46,108.49,108.46,108.49,1775
374,108.475,108.475,108.46,108.46,6100
375,108.43,108.475,108.4,108.47,5843
376,108.41,108.41,108.395,108.4,11174
377,108.41,108.41,108.41,108.41,2813
378,108.385,108.405,108.38,108.405,6082
379,108.39,108.39,108.38,108.38,4250
380,108.405,108.41,108.38,108.39,9305
381,108.4,108.41,108.4,108.405,5970
382,108.37,108.4,108.345,108.4,7450
383,108.38,108.39,108.36,108.3625,6401
384,108.36,108.395,108.345,108.39,13756
385,108.355,108.37,108.35,108.37,3700
386,108.36,108.37,108.345,108.355,11776
387,108.35,108.36,108.35,108.35,7984
388,108.32,108.345,108.31,108.34,14467
389,108.32,108.34,108.31,108.32,10356
390,108.36,108.4,108.31,108.32,35140
