EOG,EOG Resources,Energy,3,Oil & Gas Exploration & Production,51779769442,3342320
a1502112600,89.89,89.89,89.89,89.89,18152
1,89.82,89.83,89.82,89.82,500
2,89.755,89.89,89.75,89.89,3122
3,89.62,89.73,89.602,89.73,3508
4,89.8,89.82,89.54,89.67,3845
5,89.73,89.755,89.68,89.755,3250
6,89.51,89.73,89.44,89.73,11070
7,89.66,89.67,89.5,89.51,8432
8,89.71,89.72,89.65,89.68,4458
9,89.65,89.74,89.64,89.71,7700
10,89.75,89.92,89.595,89.64,17313
11,89.73,89.78,89.69,89.73,5475
12,89.73,89.73,89.675,89.69,7900
13,89.8,89.8,89.701,89.72,5803
14,89.77,89.84,89.75,89.8399,2287
15,89.8,89.85,89.75,89.75,3455
16,89.72,89.81,89.68,89.8,5951
17,89.84,89.84,89.72,89.72,5343
18,89.89,89.89,89.81,89.88,3300
19,89.94,90,89.9,89.9,1500
20,89.97,89.97,89.93,89.96,1400
21,90.14,90.14,89.97,90,3149
22,90.21,90.22,90.185,90.19,2785
23,90.15,90.23,90.14,90.23,7300
24,90.2,90.21,90.16,90.16,3900
25,90.11,90.16,90.1,90.16,3066
26,90.0613,90.12,90.05,90.11,1650
27,90,90.02,89.98,90.02,3900
28,89.93,90.02,89.89,90,11656
29,89.885,89.93,89.86,89.93,10120
30,89.88,89.91,89.82,89.86,5034
31,89.93,89.95,89.89,89.89,5521
32,89.95,90.01,89.88,89.92,5975
33,89.96,89.99,89.94,89.97,7379
34,89.97,89.99,89.94,89.96,2400
35,89.92,89.9468,89.9,89.9468,4188
36,89.91,89.95,89.88,89.92,7658
37,89.895,89.91,89.86,89.9,5525
38,90.05,90.05,89.88,89.88,9174
39,90.06,90.06,90.015,90.04,2300
40,90.01,90.03,89.98,90.03,2625
41,90.005,90.029,90.005,90.029,1578
42,89.9,90.02,89.855,90.005,7968
43,89.83,89.9,89.83,89.88,6400
44,89.79,89.83,89.79,89.8,2810
45,89.74,89.82,89.74,89.81,2826
46,89.74,89.77,89.74,89.76,5816
47,89.7715,89.785,89.7175,89.7301,4858
48,89.77,89.809,89.77,89.8072,12310
49,89.7711,89.79,89.7,89.75,7589
50,89.74,89.81,89.74,89.78,5127
51,89.715,89.77,89.68,89.77,7328
52,89.69,89.71,89.67,89.71,4833
53,89.67,89.68,89.64,89.67,3145
54,89.62,89.65,89.62,89.65,500
55,89.61,89.62,89.585,89.62,5316
56,89.55,89.59,89.52,89.59,3619
57,89.55,89.55,89.53,89.53,1900
58,89.5,89.53,89.49,89.53,4400
59,89.5,89.51,89.4772,89.49,3309
60,89.56,89.56,89.5,89.5,3251
61,89.59,89.6,89.5228,89.56,41193
62,89.52,89.605,89.52,89.6,5977
63,89.5,89.51,89.49,89.51,732
64,89.47,89.5,89.46,89.49,3577
65,89.43,89.45,89.42,89.45,2100
66,89.41,89.47,89.4,89.43,1733
67,89.4,89.4,89.36,89.39,4850
68,89.39,89.39,89.34,89.36,11147
69,89.395,89.3954,89.3946,89.3954,400
70,89.39,89.41,89.35,89.395,3721
71,89.29,89.38,89.29,89.38,6563
72,89.22,89.2999,89.22,89.2999,4301
73,89.17,89.25,89.14,89.24,11894
74,89.07,89.17,89.06,89.15,1100
75,88.92,89.04,88.86,89.04,7385
76,89.05,89.08,88.93,88.93,5412
77,88.92,89.04,88.9,89.04,4462
78,88.998,89.03,88.89,88.91,6132
79,89.02,89.09,89,89.08,6579
80,88.95,89.03,88.93,89.02,3400
81,88.91,88.91,88.85,88.9,3652
82,88.85,88.92,88.85,88.9,4900
83,89.02,89.02,88.87,88.88,5737
84,89.06,89.06,88.94,89.02,8203
85,89,89.04,88.99,89.02,3100
86,89.055,89.12,88.9975,88.9975,28436
87,89.07,89.17,89.02,89.06,23088
88,89.15,89.15,89.04,89.06,5352
89,89.06,89.15,89.045,89.15,1700
90,89.025,89.055,89.01,89.055,1212
91,89.07,89.07,88.9814,89,5745
92,89.0571,89.09,89.03,89.09,2629
93,89.0028,89.055,88.98,89.03,2550
94,88.975,89.02,88.93,88.98,8900
95,89.01,89.01,88.96,88.975,4700
96,89.05,89.05,88.98,89.0044,9922
97,89.04,89.09,89,89.03,9481
98,88.995,89.05,88.98,89.05,16266
99,89.06,89.1,88.97,88.99,14870
100,89.04,89.09,89.04,89.06,15882
101,89.02,89.06,88.98,89.04,18256
102,88.985,89.01,88.955,88.96,14540
103,88.9,89,88.9,88.98,2826
104,88.89,88.94,88.89,88.89,4642
105,88.91,88.92,88.87,88.91,6678
106,88.92,88.92,88.88,88.9,4428
107,88.95,88.98,88.88,88.92,5850
108,88.96,89,88.93,88.95,5382
109,89.01,89.05,88.945,88.97,3600
110,89.1,89.1,89,89.0033,3379
111,89.06,89.1,89.06,89.1,1045
112,89.1,89.1,89.055,89.08,5499
113,89.1,89.11,89.085,89.09,4550
114,89.12,89.12,89.1,89.12,1700
115,89.16,89.2,89.12,89.12,4168
116,89.11,89.165,89.1,89.15,5224
117,89.093,89.1114,89.07,89.09,2491
118,89.0501,89.12,89.04,89.08,4355
119,89.17,89.17,89.09,89.09,4109
120,89.185,89.27,89.18,89.18,3543
121,89.2,89.22,89.19,89.21,1000
122,89.23,89.24,89.19,89.2,3814
123,89.2,89.25,89.19,89.25,2150
124,89.24,89.24,89.18,89.19,11970
125,89.22,89.24,89.2,89.23,3200
126,89.28,89.28,89.2,89.22,4090
127,89.23,89.28,89.23,89.28,3042
128,89.36,89.36,89.23,89.23,3900
129,89.33,89.36,89.31,89.36,2522
130,89.335,89.35,89.3,89.34,4720
131,89.34,89.39,89.33,89.35,3004
132,89.3599,89.3599,89.325,89.34,2200
133,89.42,89.42,89.33,89.35,4757
134,89.39,89.44,89.39,89.42,500
135,89.37,89.4,89.37,89.4,1011
136,89.38,89.4,89.341,89.4,5607
137,89.39,89.4,89.34,89.385,4798
138,89.41,89.43,89.38,89.39,2790
139,89.4425,89.4425,89.4,89.43,3836
140,89.47,89.47,89.41,89.4332,1556
141,89.5,89.52,89.45,89.47,3900
142,89.53,89.53,89.5,89.5,2938
143,89.5401,89.55,89.5,89.53,8375
144,89.56,89.6,89.56,89.58,1904
145,89.64,89.66,89.57,89.57,4770
147,89.65,89.69,89.65,89.66,1900
148,89.62,89.64,89.61,89.64,600
149,89.65,89.65,89.61,89.61,2700
150,89.65,89.67,89.6472,89.67,2935
151,89.6334,89.65,89.63,89.64,1200
152,89.59,89.62,89.59,89.62,1151
153,89.52,89.57,89.52,89.57,1000
154,89.51,89.53,89.5,89.52,5400
155,89.5,89.505,89.49,89.5,1950
156,89.66,89.66,89.49,89.49,6389
157,89.6926,89.71,89.643,89.643,1349
158,89.65,89.69,89.65,89.69,8348
159,89.67,89.68,89.67,89.67,2022
161,89.63,89.65,89.58,89.65,9489
162,89.58,89.6,89.57,89.6,1300
163,89.59,89.6207,89.59,89.59,2500
164,89.53,89.57,89.53,89.57,1000
165,89.52,89.54,89.52,89.53,2000
166,89.51,89.55,89.48,89.53,6453
167,89.47,89.52,89.47,89.51,1600
168,89.45,89.49,89.45,89.49,1100
169,89.46,89.47,89.44,89.44,2900
170,89.45,89.5,89.45,89.4927,3700
171,89.4,89.45,89.39,89.45,2950
172,89.3899,89.39,89.35,89.39,3300
173,89.3599,89.3805,89.31,89.3805,5901
174,89.43,89.43,89.32,89.3599,3725
175,89.43,89.435,89.4,89.43,3400
176,89.42,89.43,89.4,89.43,3050
177,89.37,89.4,89.37,89.4,4400
178,89.36,89.38,89.3402,89.38,1119
179,89.41,89.41,89.33,89.33,2437
180,89.37,89.44,89.37,89.44,1477
181,89.32,89.38,89.32,89.37,2005
182,89.3399,89.3399,89.29,89.29,1601
183,89.39,89.4,89.31,89.32,4600
184,89.36,89.39,89.36,89.39,3004
185,89.38,89.38,89.35,89.3704,4086
186,89.46,89.46,89.33,89.35,2900
187,89.45,89.47,89.3999,89.47,2700
188,89.42,89.47,89.4,89.46,1900
189,89.4,89.44,89.4,89.44,10300
190,89.49,89.49,89.44,89.44,1900
191,89.42,89.46,89.42,89.46,2450
192,89.42,89.42,89.42,89.42,100
193,89.41,89.44,89.401,89.41,3438
194,89.39,89.39,89.37,89.39,1131
195,89.438,89.438,89.3601,89.3601,3400
196,89.41,89.45,89.41,89.44,1800
197,89.43,89.45,89.42,89.42,2342
198,89.43,89.43,89.41,89.42,2485
199,89.44,89.44,89.42,89.42,1500
200,89.4,89.43,89.4,89.43,2900
201,89.43,89.43,89.4,89.4,2700
202,89.445,89.45,89.43,89.44,2100
203,89.42,89.43,89.42,89.43,800
204,89.46,89.46,89.41,89.44,3100
205,89.4428,89.4666,89.42,89.4666,3500
206,89.47,89.47,89.44,89.45,2966
207,89.49,89.49,89.48,89.48,1200
208,89.46,89.55,89.46,89.49,4307
209,89.4187,89.47,89.4187,89.46,1400
210,89.4486,89.45,89.4,89.4,3335
211,89.47,89.48,89.4227,89.4227,2181
212,89.59,89.59,89.47,89.47,2700
213,89.64,89.66,89.58,89.58,3711
214,89.61,89.64,89.55,89.61,36916
215,89.6,89.63,89.6,89.63,2900
216,89.62,89.65,89.61,89.61,2050
217,89.67,89.695,89.64,89.64,3512
218,89.64,89.68,89.64,89.68,2500
219,89.66,89.66,89.62,89.66,1700
220,89.65,89.66,89.65,89.66,500
221,89.66,89.68,89.63,89.64,7025
222,89.72,89.72,89.67,89.67,3310
223,89.77,89.77,89.71,89.72,4500
224,89.76,89.78,89.74,89.77,1999
225,89.72,89.74,89.71,89.74,3000
226,89.8,89.8,89.695,89.715,6304
227,89.89,89.89,89.8,89.8,4953
228,89.93,89.93,89.85,89.86,2083
229,89.85,89.92,89.85,89.92,3711
230,89.87,89.89,89.84,89.86,2800
231,89.87,89.93,89.87,89.92,2196
232,89.89,89.89,89.86,89.86,1700
233,89.9,89.9,89.885,89.885,2100
234,89.91,89.92,89.89,89.9,7867
235,89.88,89.93,89.88,89.93,2400
236,89.88,89.88,89.88,89.88,500
237,89.89,89.91,89.86,89.89,7658
238,89.91,89.92,89.91,89.91,3898
239,89.93,89.93,89.8797,89.91,20605
240,89.94,89.94,89.91,89.91,1642
241,89.93,89.94,89.9,89.9,6800
242,89.9393,89.95,89.93,89.93,2410
243,89.99,89.99,89.95,89.95,3581
244,89.92,89.99,89.88,89.98,21250
245,89.89,89.91,89.88,89.91,3101
246,89.9,89.91,89.88,89.88,3047
247,89.88,89.91,89.88,89.88,1200
248,89.895,89.895,89.88,89.88,2000
249,89.9,89.91,89.87,89.87,9640
250,89.89,89.89,89.89,89.89,600
251,89.86,89.9,89.86,89.9,4000
252,89.81,89.88,89.81,89.86,4817
253,89.82,89.83,89.8,89.81,3295
254,89.82,89.83,89.82,89.82,21889
255,89.77,89.82,89.77,89.82,8500
256,89.69,89.77,89.69,89.77,9644
257,89.66,89.72,89.65,89.705,21873
258,89.64,89.6712,89.64,89.66,1489
259,89.62,89.63,89.62,89.63,900
260,89.6,89.6,89.5802,89.6,5422
261,89.6,89.63,89.58,89.59,6725
262,89.59,89.6,89.57,89.58,2633
263,89.57,89.6,89.54,89.58,3463
264,89.45,89.57,89.45,89.57,4383
265,89.4756,89.49,89.42,89.45,4175
266,89.5,89.51,89.48,89.49,1573
267,89.46,89.48,89.425,89.48,9300
268,89.51,89.52,89.46,89.46,2698
269,89.55,89.55,89.5,89.5,2200
270,89.54,89.55,89.53,89.55,800
271,89.57,89.58,89.54,89.54,3184
272,89.54,89.58,89.54,89.57,4544
273,89.66,89.66,89.54,89.54,2358
274,89.63,89.7,89.63,89.67,4299
275,89.58,89.63,89.58,89.63,600
276,89.58,89.61,89.56,89.56,2637
277,89.51,89.57,89.51,89.57,2900
278,89.56,89.56,89.52,89.52,2800
279,89.49,89.545,89.49,89.54,4127
280,89.565,89.565,89.495,89.495,1900
281,89.495,89.55,89.48,89.55,3111
282,89.42,89.5,89.42,89.47,19788
283,89.44,89.465,89.42,89.43,1700
284,89.42,89.45,89.42,89.44,900
285,89.48,89.48,89.41,89.41,2100
286,89.52,89.52,89.49,89.49,1300
287,89.51,89.52,89.5,89.51,1100
288,89.53,89.57,89.53,89.54,2750
289,89.52,89.52,89.52,89.52,400
290,89.47,89.53,89.47,89.52,2825
291,89.43,89.47,89.43,89.45,4335
292,89.51,89.54,89.45,89.45,13333
293,89.54,89.55,89.5106,89.525,2686
294,89.64,89.64,89.56,89.56,1300
295,89.6,89.639,89.58,89.639,2400
296,89.58,89.61,89.58,89.605,1314
297,89.57,89.58,89.55,89.56,3951
298,89.65,89.67,89.59,89.59,1900
299,89.57,89.6557,89.57,89.65,2854
300,89.59,89.595,89.56,89.57,900
301,89.63,89.63,89.56,89.5652,3006
302,89.6,89.65,89.6,89.65,2221
303,89.65,89.65,89.59,89.595,5201
304,89.64,89.66,89.63,89.65,1900
305,89.61,89.65,89.61,89.635,850
306,89.61,89.625,89.61,89.61,1436
307,89.66,89.665,89.63,89.63,4496
308,89.7,89.7,89.65,89.66,800
309,89.605,89.7,89.59,89.68,10600
310,89.59,89.6,89.56,89.6,7048
311,89.6,89.6,89.56,89.575,7153
312,89.58,89.65,89.575,89.575,8042
313,89.575,89.58,89.56,89.56,900
314,89.56,89.56,89.55,89.56,8552
315,89.58,89.59,89.56,89.56,2600
316,89.64,89.64,89.59,89.59,2450
317,89.6,89.68,89.6,89.65,4200
318,89.57,89.5922,89.56,89.59,4100
319,89.55,89.57,89.55,89.56,2715
320,89.56,89.57,89.55,89.55,3800
321,89.57,89.57,89.55,89.55,1440
322,89.565,89.57,89.55,89.55,2543
323,89.555,89.56,89.55,89.56,2900
324,89.58,89.58,89.55,89.55,3646
325,89.58,89.61,89.57,89.58,4471
326,89.55,89.58,89.55,89.58,3400
327,89.55,89.56,89.55,89.55,2786
328,89.55,89.575,89.55,89.55,4010
329,89.55,89.56,89.55,89.55,4541
330,89.55,89.56,89.55,89.55,16046
331,89.57,89.575,89.55,89.55,4418
332,89.58,89.64,89.58,89.58,4853
333,89.57,89.58,89.55,89.58,9493
334,89.57,89.63,89.55,89.55,6225
335,89.6,89.61,89.6,89.6099,1049
336,89.55,89.61,89.55,89.6,2781
337,89.56,89.57,89.55,89.55,7125
338,89.61,89.635,89.57,89.58,7005
339,89.6,89.61,89.59,89.61,1500
340,89.56,89.58,89.55,89.58,5854
341,89.56,89.58,89.55,89.5564,6938
342,89.55,89.57,89.54,89.56,9965
343,89.55,89.56,89.55,89.555,2800
344,89.57,89.58,89.55,89.55,5507
345,89.63,89.64,89.58,89.58,2999
346,89.69,89.69,89.64,89.64,2300
347,89.75,89.75,89.69,89.69,3800
348,89.72,89.76,89.72,89.76,3303
349,89.69,89.72,89.65,89.72,6227
350,89.685,89.69,89.67,89.69,1855
351,89.63,89.68,89.62,89.68,4956
352,89.58,89.62,89.57,89.62,2700
353,89.56,89.59,89.56,89.57,1908
354,89.55,89.55,89.54,89.55,3156
355,89.55,89.55,89.54,89.55,6863
356,89.53,89.58,89.51,89.55,12961
357,89.5,89.52,89.48,89.5,2405
358,89.5,89.5292,89.48,89.5,4648
359,89.56,89.57,89.49,89.49,3124
360,89.6,89.62,89.53,89.56,9098
361,89.585,89.6,89.56,89.6,3367
362,89.65,89.65,89.575,89.575,4389
363,89.6202,89.67,89.6202,89.65,6015
364,89.65,89.65,89.62,89.63,5510
365,89.615,89.66,89.61,89.66,3000
366,89.58,89.615,89.57,89.615,7524
367,89.62,89.63,89.575,89.59,10633
368,89.55,89.62,89.54,89.62,6250
369,89.55,89.56,89.54,89.55,3500
370,89.62,89.635,89.54,89.55,19377
371,89.6613,89.6613,89.62,89.62,6083
372,89.65,89.66,89.64,89.655,6104
373,89.7,89.7,89.66,89.66,4716
374,89.685,89.71,89.64,89.71,11975
375,89.71,89.71,89.69,89.69,11895
376,89.705,89.73,89.69,89.7,14990
377,89.72,89.73,89.695,89.705,8058
378,89.805,89.81,89.72,89.73,20434
379,89.805,89.92,89.8,89.81,20617
380,89.76,89.84,89.76,89.81,19082
381,89.725,89.77,89.7,89.77,18108
382,89.74,89.74,89.72,89.725,7429
383,89.735,89.77,89.72,89.74,22063
384,89.77,89.77,89.74,89.74,18407
385,89.79,89.81,89.77,89.78,18953
386,89.74,89.81,89.73,89.79,26145
387,89.78,89.78,89.74,89.74,23242
388,89.795,89.83,89.77,89.78,27242
389,89.74,89.79,89.72,89.79,21715
390,89.7,89.77,89.69,89.735,64607
