PPG,PPG Industries,Materials,8,Specialty Chemicals,26966282230,1386108
a1502112600,105.2,105.2,105.2,105.2,7738
2,104.96,104.96,104.96,104.96,100
3,105,105,105,105,108
4,105.63,105.65,105.11,105.115,29101
5,105.675,105.71,105.58,105.63,8850
6,105.73,105.91,105.61,105.61,13299
7,105.75,105.89,105.69,105.71,2020
8,105.803,105.89,105.75,105.77,3101
9,105.83,105.84,105.72,105.72,1000
10,105.72,105.72,105.72,105.72,200
11,105.69,105.79,105.66,105.78,2661
12,105.49,105.68,105.49,105.68,3324
13,105.5,105.5,105.37,105.37,1476
14,105.57,105.57,105.56,105.56,640
15,105.48,105.57,105.48,105.57,2099
16,105.37,105.48,105.36,105.48,1300
17,105.39,105.39,105.39,105.39,100
18,105.6,105.6,105.4175,105.45,2211
19,105.6599,105.6599,105.637,105.64,950
20,105.6,105.6599,105.6,105.6567,2204
21,105.47,105.64,105.43,105.64,3440
22,105.44,105.47,105.42,105.44,1800
24,105.34,105.39,105.34,105.39,400
25,105.4,105.4,105.33,105.33,700
26,105.35,105.4,105.35,105.36,2601
27,105.43,105.45,105.35,105.3786,3290
28,105.43,105.44,105.41,105.42,900
29,105.39,105.42,105.38,105.42,2702
30,105.36,105.4,105.33,105.37,1000
31,105.34,105.39,105.34,105.36,1602
32,105.38,105.39,105.33,105.34,3300
33,105.395,105.42,105.38,105.4,800
34,105.39,105.39,105.37,105.37,204
35,105.42,105.42,105.39,105.41,1030
36,105.44,105.44,105.38,105.38,3561
37,105.43,105.47,105.42,105.43,2900
38,105.42,105.43,105.41,105.41,300
39,105.4,105.43,105.38,105.425,2392
40,105.35,105.41,105.33,105.4,12000
41,105.29,105.3773,105.28,105.35,10100
42,105.3,105.36,105.27,105.36,800
43,105.31,105.34,105.28,105.3,2900
44,105.31,105.325,105.31,105.32,800
45,105.315,105.34,105.29,105.31,2901
46,105.39,105.39,105.29,105.29,700
47,105.37,105.41,105.36,105.39,3890
48,105.39,105.43,105.37,105.37,2020
49,105.395,105.41,105.39,105.39,2875
50,105.37,105.42,105.37,105.39,4400
51,105.36,105.41,105.36,105.385,903
52,105.34,105.36,105.34,105.36,1700
53,105.35,105.37,105.32,105.34,1700
54,105.36,105.41,105.36,105.39,2000
55,105.385,105.39,105.36,105.36,500
56,105.45,105.45,105.4,105.4,1950
57,105.47,105.4973,105.45,105.4973,1197
58,105.498,105.498,105.49,105.49,500
59,105.56,105.56,105.52,105.52,1400
60,105.54,105.57,105.54,105.55,3500
61,105.555,105.56,105.53,105.54,1600
62,105.54,105.54,105.54,105.54,100
63,105.51,105.55,105.5,105.55,2220
64,105.54,105.57,105.52,105.52,2000
65,105.53,105.56,105.53,105.56,900
66,105.53,105.53,105.51,105.52,1000
67,105.54,105.56,105.54,105.54,800
68,105.54,105.56,105.54,105.55,600
69,105.54,105.56,105.54,105.55,1500
70,105.52,105.53,105.51,105.53,1100
71,105.5,105.55,105.5,105.52,2300
72,105.47,105.49,105.47,105.49,200
73,105.4899,105.4899,105.4899,105.4899,105
74,105.46,105.48,105.45,105.46,1200
75,105.44,105.47,105.44,105.46,2708
76,105.44,105.47,105.44,105.47,1276
77,105.42,105.45,105.42,105.45,1100
78,105.36,105.39,105.36,105.39,200
79,105.41,105.41,105.37,105.39,1600
80,105.38,105.4,105.38,105.4,1800
82,105.34,105.37,105.34,105.37,1677
83,105.36,105.36,105.29,105.29,1700
84,105.35,105.37,105.35,105.37,900
85,105.35,105.3699,105.35,105.35,500
86,105.355,105.355,105.355,105.355,200
87,105.34,105.36,105.32,105.35,3600
88,105.36,105.36,105.35,105.35,2471
89,105.33,105.34,105.33,105.34,1300
90,105.26,105.32,105.26,105.32,1200
91,105.249,105.249,105.249,105.249,221
92,105.21,105.233,105.21,105.22,1000
93,105.21,105.21,105.21,105.21,301
94,105.25,105.28,105.21,105.22,2803
95,105.22,105.24,105.21,105.24,2490
96,105.25,105.25,105.22,105.22,600
97,105.24,105.24,105.24,105.24,100
98,105.21,105.26,105.21,105.26,1309
99,105.22,105.22,105.19,105.19,500
100,105.18,105.21,105.18,105.21,1400
101,105.17,105.2,105.17,105.18,4100
102,105.12,105.16,105.12,105.16,2183
104,105.185,105.2,105.14,105.14,2700
105,105.13,105.16,105.09,105.12,4304
106,105.17,105.17,105.15,105.15,600
107,105.07,105.165,105.07,105.15,4400
108,105.08,105.11,105.08,105.11,3555
109,105.05,105.07,105.04,105.07,1533
110,105.05,105.05,105.04,105.04,800
111,105.06,105.07,105.055,105.055,1700
113,105.06,105.07,105.05,105.05,500
114,105.1,105.11,105.07,105.07,2300
115,105.09,105.1,105.08,105.1,3528
116,105.08,105.1,105.08,105.1,400
117,104.99,105.07,104.98,105.07,2900
118,104.96,105.01,104.96,105,4501
119,105.01,105.01,104.95,104.96,2400
120,105,105,105,105,500
121,105,105,104.98,105,400
123,105.02,105.02,105.02,105.02,100
124,105.005,105.005,105.005,105.005,200
125,105,105.02,105,105.02,1100
126,105,105,105,105,300
127,105.06,105.06,105,105.01,2279
128,105.11,105.11,105.11,105.11,100
129,105.11,105.12,105.07,105.08,1923
130,105.1,105.125,105.09,105.1,3800
131,105.14,105.14,105.11,105.11,200
132,105.14,105.14,105.12,105.13,459
133,105.17,105.17,105.13,105.13,800
134,105.18,105.18,105.15,105.15,532
135,105.26,105.26,105.18,105.18,1100
136,105.23,105.23,105.23,105.23,100
137,105.21,105.24,105.21,105.231,3349
138,105.2,105.2043,105.2,105.2,1400
139,105.22,105.22,105.19,105.19,1374
140,105.23,105.23,105.23,105.23,301
141,105.22,105.22,105.22,105.22,200
142,105.24,105.24,105.23,105.23,600
143,105.2,105.2397,105.2,105.2397,3288
144,105.13,105.205,105.13,105.205,1789
145,105.12,105.13,105.12,105.13,500
146,105.15,105.15,105.09,105.09,2000
148,105.14,105.17,105.14,105.17,500
149,105.22,105.22,105.16,105.16,1327
150,105.16,105.18,105.16,105.17,1310
151,105.16,105.16,105.16,105.16,500
152,105.16,105.16,105.16,105.16,100
153,105.18,105.19,105.16,105.16,1400
154,105.17,105.19,105.17,105.17,1036
155,105.18,105.18,105.18,105.18,400
156,105.2,105.2,105.2,105.2,300
158,105.2,105.2,105.2,105.2,200
159,105.24,105.24,105.21,105.21,1200
160,105.245,105.245,105.242,105.242,208
161,105.27,105.27,105.25,105.25,200
162,105.24,105.28,105.24,105.27,2730
163,105.27,105.27,105.23,105.23,1200
165,105.28,105.28,105.27,105.27,1500
166,105.3,105.32,105.29,105.29,1482
167,105.29,105.3,105.285,105.29,1300
168,105.29,105.3,105.27,105.29,1800
169,105.29,105.29,105.28,105.28,709
170,105.2928,105.3,105.29,105.3,1258
172,105.32,105.33,105.32,105.33,400
174,105.32,105.33,105.32,105.33,500
175,105.33,105.33,105.33,105.33,100
176,105.355,105.355,105.33,105.33,1400
177,105.343,105.355,105.343,105.35,300
178,105.33,105.35,105.32,105.35,1000
179,105.32,105.32,105.32,105.32,535
180,105.3,105.31,105.3,105.31,900
182,105.29,105.2929,105.29,105.2927,1651
183,105.3,105.3,105.28,105.28,2000
184,105.27,105.29,105.27,105.29,951
185,105.27,105.27,105.27,105.27,200
187,105.285,105.29,105.285,105.29,400
188,105.28,105.2858,105.28,105.2858,635
189,105.27,105.27,105.27,105.27,600
191,105.26,105.26,105.26,105.26,200
192,105.3,105.3,105.28,105.28,1691
193,105.2865,105.2865,105.2865,105.2865,288
194,105.28,105.3,105.28,105.3,1400
195,105.29,105.29,105.29,105.29,200
196,105.28,105.3,105.28,105.3,200
197,105.29,105.29,105.2837,105.29,540
198,105.29,105.3,105.29,105.29,1133
199,105.3,105.3,105.3,105.3,100
201,105.29,105.31,105.29,105.31,1002
202,105.28,105.29,105.28,105.29,1300
203,105.28,105.28,105.28,105.28,400
204,105.29,105.29,105.29,105.29,600
205,105.29,105.295,105.29,105.29,26600
206,105.35,105.35,105.29,105.29,3697
207,105.38,105.38,105.33,105.35,2200
208,105.38,105.38,105.38,105.38,100
209,105.39,105.39,105.38,105.38,800
210,105.42,105.42,105.4,105.4,500
211,105.41,105.43,105.41,105.41,824
212,105.39,105.41,105.37,105.41,4500
213,105.37,105.39,105.37,105.39,600
215,105.37,105.38,105.37,105.38,1350
216,105.36,105.36,105.36,105.36,200
217,105.37,105.37,105.36,105.36,700
218,105.37,105.37,105.37,105.37,300
219,105.36,105.36,105.36,105.36,800
220,105.36,105.37,105.36,105.37,711
221,105.36,105.365,105.36,105.36,675
222,105.35,105.35,105.35,105.35,100
223,105.3501,105.3501,105.35,105.35,400
224,105.34,105.35,105.34,105.35,1151
225,105.32,105.33,105.32,105.33,662
226,105.31,105.31,105.31,105.31,200
227,105.35,105.35,105.31,105.31,2309
228,105.345,105.35,105.345,105.35,500
229,105.35,105.35,105.34,105.345,1045
230,105.35,105.35,105.35,105.35,100
231,105.34,105.34,105.34,105.34,100
232,105.34,105.35,105.34,105.35,300
233,105.35,105.35,105.345,105.345,18500
234,105.36,105.36,105.35,105.36,1620
235,105.39,105.42,105.36,105.36,1450
236,105.37,105.38,105.37,105.38,1673
237,105.36,105.36,105.36,105.36,900
238,105.35,105.35,105.33,105.35,1500
239,105.36,105.36,105.36,105.36,800
240,105.35,105.35,105.35,105.35,100
241,105.35,105.35,105.34,105.34,2500
242,105.35,105.35,105.35,105.35,100
243,105.35,105.35,105.33,105.34,1538
244,105.36,105.36,105.36,105.36,100
245,105.355,105.355,105.34,105.34,3610
246,105.38,105.39,105.35,105.35,6176
247,105.37,105.37,105.37,105.37,605
249,105.36,105.36,105.36,105.36,100
250,105.37,105.37,105.36,105.36,1424
251,105.34,105.35,105.34,105.35,900
252,105.285,105.33,105.285,105.33,964
253,105.3,105.3,105.285,105.285,1200
254,105.305,105.305,105.305,105.305,233
255,105.295,105.3,105.295,105.3,200
256,105.31,105.31,105.29,105.29,900
257,105.3,105.3,105.2902,105.2902,400
258,105.3,105.3,105.3,105.3,300
259,105.295,105.295,105.295,105.295,100
260,105.26,105.2976,105.26,105.2976,3017
261,105.26,105.26,105.26,105.26,500
262,105.32,105.32,105.25,105.26,1880
263,105.26,105.29,105.26,105.29,500
264,105.25,105.25,105.25,105.25,100
266,105.255,105.26,105.25,105.26,1200
267,105.267,105.267,105.26,105.26,248
268,105.27,105.27,105.25,105.25,404
269,105.25,105.26,105.25,105.26,892
270,105.26,105.26,105.245,105.245,706
271,105.24,105.2499,105.24,105.2499,2248
272,105.2,105.23,105.2,105.23,1400
273,105.19,105.19,105.19,105.19,200
274,105.18,105.18,105.18,105.18,100
275,105.2,105.21,105.18,105.18,3342
276,105.2,105.2,105.2,105.2,100
277,105.15,105.2,105.15,105.2,2300
278,105.15,105.15,105.15,105.15,400
279,105.12,105.15,105.11,105.14,2722
280,105.12,105.14,105.1115,105.1115,2306
281,105.13,105.14,105.11,105.12,1834
282,105.125,105.135,105.125,105.135,1000
283,105.15,105.15,105.13,105.13,1577
284,105.15,105.15,105.15,105.15,1408
285,105.135,105.16,105.13,105.142,4410
286,105.115,105.125,105.11,105.12,1500
287,105.115,105.115,105.115,105.115,901
288,105.115,105.115,105.115,105.115,300
289,105.025,105.11,105,105.11,8460
290,105.08,105.08,105.04,105.04,1400
291,105.07,105.085,105.06,105.08,2498
292,105.11,105.15,105.09,105.09,2509
293,105.14,105.14,105.13,105.14,400
294,105.12,105.13,105.12,105.13,500
295,105.13,105.15,105.13,105.15,286
296,105.14,105.14,105.13,105.13,200
297,105.13,105.15,105.13,105.15,400
298,105.13,105.13,105.13,105.13,1500
299,105.14,105.14,105.14,105.14,500
300,105.14,105.14,105.13,105.14,800
301,105.14,105.14,105.13,105.13,800
302,105.135,105.135,105.135,105.135,100
303,105.13,105.14,105.12,105.14,2110
304,105.14,105.14,105.13,105.13,700
305,105.13,105.15,105.13,105.15,300
306,105.11,105.14,105.11,105.14,2300
307,105.12,105.13,105.12,105.12,1200
308,105.13,105.13,105.13,105.13,1400
309,105.13,105.13,105.13,105.13,100
310,105.14,105.14,105.11,105.125,3647
311,105.12,105.15,105.12,105.13,2571
312,105.12,105.13,105.12,105.12,800
313,105.13,105.13,105.13,105.13,100
314,105.14,105.14,105.13,105.13,500
315,105.15,105.15,105.15,105.15,500
316,105.15,105.15,105.15,105.15,621
317,105.15,105.15,105.14,105.14,2447
318,105.13,105.14,105.13,105.14,1100
319,105.14,105.15,105.14,105.14,400
320,105.14,105.16,105.14,105.15,2950
321,105.11,105.14,105.11,105.14,2081
322,105.08,105.11,105.08,105.11,1900
323,105.06,105.08,105.06,105.08,2610
324,105.05,105.0636,105.05,105.0636,1703
325,105.05,105.05,105.05,105.05,100
326,105.03,105.04,105.03,105.04,710
327,105.03,105.04,105.03,105.035,500
328,105.05,105.05,105.04,105.04,2162
329,105.04,105.05,105.04,105.05,300
330,105.02,105.05,105.02,105.04,1999
331,105.04,105.06,105.03,105.03,2800
332,105.06,105.0798,105.06,105.061,928
333,105.09,105.09,105.08,105.08,781
334,105.1001,105.12,105.1,105.1,723
335,105.1,105.1,105.095,105.1,1154
336,105.11,105.12,105.1,105.11,800
337,105.12,105.12,105.11,105.11,1426
338,105.11,105.13,105.11,105.12,1424
339,105.16,105.16,105.105,105.11,2429
340,105.15,105.155,105.14,105.155,1000
341,105.12,105.15,105.12,105.15,2411
342,105.14,105.14,105.12,105.12,1484
343,105.14,105.14,105.135,105.135,525
344,105.15,105.15,105.14,105.14,500
345,105.165,105.165,105.16,105.16,11500
346,105.15,105.165,105.145,105.165,7401
347,105.15,105.16,105.15,105.16,4000
348,105.14,105.155,105.14,105.15,1332
349,105.12,105.145,105.12,105.145,16805
350,105.1,105.11,105.1,105.11,1000
351,105.12,105.12,105.1,105.1,3471
352,105.12,105.12,105.12,105.12,1500
353,105.11,105.12,105.11,105.12,300
354,105.12,105.12,105.11,105.11,400
355,105.15,105.15,105.11,105.11,3457
356,105.13,105.1366,105.13,105.1366,387
357,105.13,105.13,105.12,105.13,1767
358,105.15,105.15,105.1239,105.1239,4235
359,105.14,105.16,105.14,105.15,2660
360,105.15,105.155,105.13,105.14,3836
361,105.145,105.145,105.14,105.14,400
362,105.11,105.145,105.11,105.145,4500
363,105.11,105.11,105.11,105.11,300
364,105.1,105.12,105.095,105.12,3859
365,105.09,105.1,105.09,105.1,3992
366,105.08,105.1,105.08,105.09,3905
367,105.1,105.11,105.09,105.09,2200
368,105.1057,105.11,105.1,105.1,1300
369,105.11,105.11,105.1,105.11,921
370,105.12,105.13,105.1,105.1,4304
371,105.13,105.13,105.11,105.12,1550
372,105.115,105.12,105.11,105.11,500
373,105.115,105.12,105.115,105.115,2100
374,105.1,105.11,105.1,105.11,2450
375,105.11,105.11,105.08,105.1,14095
376,105.15,105.15,105.12,105.12,3250
377,105.15,105.15,105.15,105.15,500
378,105.15,105.15,105.15,105.15,5168
379,105.13,105.15,105.13,105.15,5525
380,105.11,105.13,105.1,105.13,4469
381,105.095,105.11,105.09,105.11,5572
382,105.09,105.11,105.09,105.09,3350
383,105.11,105.11,105.09,105.1,4021
384,105.13,105.13,105.1,105.105,7596
385,105.13,105.13,105.12,105.13,1600
386,105.125,105.13,105.11,105.13,8733
387,105.14,105.14,105.12,105.125,5841
388,105.15,105.15,105.13,105.14,7983
389,105.1482,105.15,105.14,105.15,10830
390,105.13,105.15,105.13,105.14,17219
