EOG,EOG Resources,Energy,3,Oil & Gas Exploration & Production,52172430707,3390133
a1502285400,91.52,91.52,91.52,91.52,19573
1,92,92,91.62,91.85,5812
2,91.82,91.98,91.82,91.98,1100
3,91.9984,91.9984,91.77,91.817,920
4,92.15,92.24,91.95,91.95,6605
5,92.26,92.26,92.14,92.15,2000
6,92.26,92.35,92.22,92.22,2228
7,91.99,92.17,91.99,92.16,2900
8,92.12,92.19,91.99,91.99,2901
9,92.11,92.11,92,92.05,3730
10,92,92.11,91.93,92.08,6744
11,91.99,92,91.83,91.89,3800
12,91.93,92.04,91.84,92.02,3085
13,92.07,92.07,91.94,91.96,1400
14,91.96,92.12,91.91,92.1,4707
15,92.14,92.16,91.9,91.95,8149
16,92.24,92.26,92.16,92.2,7600
17,92.2,92.24,92.04,92.18,6050
18,92.24,92.27,92.14,92.24,4300
19,92.18,92.33,92.17,92.26,12052
20,92.09,92.21,92.09,92.19,4425
21,92.08,92.17,92.07,92.0808,5390
22,92.09,92.17,92.04,92.085,12531
23,92.195,92.21,92.08,92.08,3500
24,92.22,92.26,92.16,92.2,3583
25,92.11,92.23,92.06,92.23,3322
26,92.15,92.15,92.04,92.12,8500
27,92.01,92.15,92,92.15,4758
28,91.94,92.01,91.92,92.01,2030
29,91.95,91.98,91.9,91.93,6937
30,92.07,92.09,91.96,91.97,4981
31,91.94,92.08,91.94,92.08,5756
32,91.96,91.97,91.9,91.91,4542
33,91.9,91.96,91.89,91.9509,5328
34,91.83,91.935,91.83,91.88,5578
35,91.9,91.91,91.86,91.86,4067
36,91.9099,91.94,91.875,91.9,4529
37,91.92,91.97,91.9,91.91,12147
38,91.91,91.92,91.89,91.92,3009
39,91.79,91.89,91.74,91.86,4732
40,91.78,91.8,91.74,91.76,1800
41,91.89,91.91,91.79,91.79,3010
42,91.89,91.9,91.85,91.88,3924
43,91.96,91.96,91.86,91.86,1100
44,91.94,91.94,91.9,91.94,7734
45,91.88,91.94,91.88,91.93,8975
46,91.86,91.9,91.84,91.86,4500
47,91.83,91.9,91.83,91.86,7376
48,91.92,91.92,91.83,91.85,2875
49,92.04,92.05,91.92,91.92,8186
50,91.99,92,91.94,92,7100
51,92.04,92.04,91.96,91.99,6701
52,92.04,92.05,91.986,92.02,1589
53,91.96,92,91.95,92,3300
54,91.91,92,91.89,91.9666,18643
55,91.84,91.9,91.82,91.88,5500
56,91.82,91.88,91.77,91.84,11100
57,91.83,91.86,91.82,91.83,4600
58,91.88,91.88,91.77,91.83,8300
59,91.88,91.89,91.86,91.88,2055
60,91.76,91.9,91.76,91.9,6133
61,91.76,91.94,91.675,91.74,10262
62,91.98,92,91.74,91.74,3347
63,91.865,91.98,91.84,91.93,4367
64,91.8643,91.92,91.8643,91.89,3776
65,91.95,91.95,91.85,91.89,2506
66,91.89,91.93,91.85,91.93,8590
67,91.89,91.89,91.77,91.87,8852
68,91.87,91.9699,91.81,91.89,8864
69,91.835,91.87,91.83,91.85,18350
70,91.88,91.88,91.805,91.81,8603
71,91.85,91.89,91.8,91.87,9546
72,91.85,91.89,91.8,91.82,11247
73,91.75,91.84,91.75,91.79,7175
74,91.57,91.78,91.57,91.73,6100
75,91.571,91.6,91.5,91.56,5526
76,91.5,91.53,91.48,91.53,1900
77,91.7,91.76,91.54,91.54,3201
78,91.68,91.76,91.68,91.73,4000
79,91.77,91.79,91.65,91.68,17110
80,91.61,91.77,91.61,91.77,2100
81,91.63,91.64,91.59,91.6192,5608
82,91.6,91.68,91.6,91.65,9628
83,91.68,91.68,91.615,91.65,10460
84,91.68,91.6999,91.65,91.65,9718
85,91.65,91.67,91.62,91.665,7201
86,91.56,91.66,91.54,91.635,4730
87,91.62,91.62,91.55,91.58,3938
88,91.82,91.84,91.6,91.61,6661
89,91.88,91.89,91.845,91.86,2403
90,91.92,91.92,91.88,91.88,800
91,91.861,91.92,91.86,91.92,5826
92,91.8999,91.8999,91.81,91.86,1353
93,91.83,91.85,91.78,91.83,3839
94,91.9141,91.92,91.81,91.81,1202
95,91.87,91.96,91.87,91.92,2057
96,91.84,91.9,91.81,91.9,3500
97,91.87,91.87,91.78,91.81,2800
98,91.87,91.87,91.84,91.87,1100
99,91.8,91.85,91.8,91.85,1500
100,91.77,91.82,91.75,91.8,2400
101,91.74,91.79,91.74,91.78,2400
102,91.68,91.771,91.68,91.75,2802
103,91.685,91.7061,91.68,91.68,1936
104,91.62,91.67,91.58,91.65,2616
105,91.62,91.65,91.58,91.63,600
106,91.56,91.6,91.56,91.58,5774
107,91.6,91.6,91.54,91.56,15268
108,91.54,91.6,91.54,91.58,1400
109,91.59,91.6,91.57,91.57,6247
110,91.5,91.61,91.47,91.59,3714
111,91.48,91.51,91.47,91.48,2265
112,91.55,91.55,91.5,91.5,3900
113,91.55,91.58,91.52,91.5506,2500
114,91.5,91.58,91.4754,91.55,4350
115,91.51,91.52,91.42,91.5,6510
116,91.58,91.58,91.49,91.52,8155
117,91.58,91.58,91.525,91.53,7996
118,91.63,91.65,91.57,91.59,5850
119,91.545,91.6,91.54,91.58,7962
120,91.61,91.61,91.54,91.545,3307
121,91.74,91.74,91.59,91.61,6567
122,91.73,91.75,91.7,91.75,3239
123,91.68,91.73,91.63,91.73,4630
124,91.68,91.68,91.62,91.64,2210
125,91.61,91.665,91.5801,91.665,1842
126,91.59,91.6199,91.56,91.6199,8477
127,91.65,91.65,91.58,91.59,5496
128,91.629,91.63,91.58,91.62,2450
129,91.641,91.641,91.58,91.6,3083
130,91.65,91.66,91.59,91.655,4663
131,91.58,91.63,91.57,91.61,3164
132,91.6,91.65,91.6,91.6,1350
133,91.59,91.61,91.57,91.57,1842
134,91.575,91.63,91.57,91.59,3714
135,91.5701,91.59,91.54,91.575,4347
136,91.58,91.58,91.54,91.5401,700
137,91.49,91.54,91.49,91.54,2500
138,91.46,91.5,91.42,91.48,4400
139,91.45,91.45,91.423,91.423,433
140,91.41,91.42,91.39,91.42,900
141,91.304,91.405,91.3008,91.38,4458
142,91.305,91.32,91.24,91.3,3025
143,91.41,91.41,91.305,91.305,1400
144,91.45,91.5,91.41,91.4214,13683
145,91.45,91.5,91.44,91.45,3700
146,91.53,91.53,91.43,91.43,2300
147,91.53,91.55,91.51,91.53,1800
148,91.55,91.569,91.51,91.569,1941
149,91.65,91.65,91.51,91.52,3600
150,91.51,91.64,91.51,91.64,3365
151,91.465,91.5,91.4501,91.5,3250
152,91.49,91.5068,91.465,91.465,1801
154,91.465,91.47,91.465,91.47,200
155,91.46,91.465,91.44,91.465,500
156,91.5,91.5,91.45,91.46,5450
157,91.565,91.565,91.51,91.51,1560
158,91.51,91.54,91.49,91.54,2200
159,91.47,91.47,91.47,91.47,100
160,91.466,91.49,91.44,91.48,2800
161,91.465,91.48,91.44,91.45,1904
162,91.45,91.465,91.45,91.465,500
163,91.49,91.53,91.48,91.48,2009
164,91.4,91.48,91.4,91.47,1776
165,91.38,91.42,91.38,91.4199,9869
166,91.36,91.4,91.36,91.39,3719
167,91.5,91.5,91.36,91.375,9249
168,91.45,91.48,91.45,91.48,1059
169,91.43,91.46,91.41,91.46,1600
171,91.46,91.46,91.43,91.44,800
172,91.38,91.45,91.365,91.45,5550
173,91.4,91.44,91.39,91.39,2000
174,91.42,91.42,91.4,91.41,15795
175,91.43,91.44,91.42,91.43,1200
176,91.4887,91.4887,91.44,91.44,2187
177,91.48,91.49,91.47,91.49,960
178,91.5199,91.52,91.49,91.49,2150
179,91.48,91.5,91.46,91.49,1482
180,91.435,91.46,91.43,91.46,2900
181,91.4,91.46,91.4,91.45,6765
182,91.43,91.43,91.37,91.41,9062
183,91.44,91.44,91.42,91.42,1300
184,91.42,91.46,91.41,91.45,3500
185,91.46,91.46,91.43,91.43,1200
186,91.49,91.49,91.43,91.465,3917
187,91.54,91.54,91.49,91.49,1609
188,91.56,91.56,91.515,91.54,4000
189,91.57,91.57,91.555,91.555,222
190,91.555,91.57,91.54,91.57,2500
191,91.55,91.57,91.55,91.57,800
192,91.48,91.5425,91.48,91.54,2830
193,91.475,91.49,91.45,91.485,1750
194,91.44,91.46,91.44,91.44,1700
195,91.39,91.445,91.39,91.445,2519
196,91.39,91.42,91.39,91.39,1800
197,91.36,91.39,91.36,91.39,3800
198,91.34,91.36,91.34,91.36,23400
199,91.24,91.37,91.24,91.34,27649
200,91.24,91.24,91.22,91.235,4400
201,91.22,91.245,91.22,91.245,8362
202,91.225,91.26,91.2,91.22,11492
203,91.225,91.28,91.22,91.25,5922
204,91.22,91.24,91.21,91.23,1213
205,91.17,91.2,91.17,91.2,2786
206,91.14,91.1936,91.12,91.18,4679
207,91.13,91.14,91.13,91.14,1000
208,91.17,91.17,91.13,91.13,3731
209,91.17,91.19,91.17,91.17,1950
210,91.2,91.2,91.17,91.18,1300
211,91.21,91.21,91.19,91.2,1907
212,91.22,91.22,91.1911,91.205,3650
213,91.21,91.24,91.18,91.23,6201
214,91.19,91.22,91.17,91.22,2600
215,91.16,91.19,91.16,91.19,2200
216,91.21,91.25,91.18,91.18,3178
217,91.23,91.23,91.23,91.23,200
218,91.265,91.27,91.24,91.25,4303
219,91.23,91.27,91.23,91.26,3600
220,91.24,91.26,91.23,91.24,6930
221,91.21,91.26,91.21,91.24,3800
222,91.21,91.24,91.21,91.21,5000
223,91.21,91.24,91.19,91.2,26238
224,91.13,91.23,91.12,91.22,4451
225,91.13,91.13,91.09,91.13,2956
226,91.1,91.12,91.09,91.12,1150
227,91,91.11,91,91.11,4674
228,91.01,91.03,90.99,90.99,2500
229,91,91.03,90.99,91.01,1573
230,90.985,91,90.97,90.991,1979
231,91.07,91.07,91,91,6130
232,91.09,91.09,91.04,91.07,1906
233,91.03,91.05,91.03,91.05,900
234,91.03,91.05,91.03,91.05,1150
235,91.0186,91.04,91,91.02,16758
236,90.99,91.039,90.98,91.02,13456
237,91.015,91.03,91,91,14887
238,91.04,91.06,91.02,91.02,6773
239,91.03,91.03,91.02,91.02,950
240,91.07,91.07,91.04,91.04,2600
241,91.03,91.08,91.03,91.07,5744
242,91,91.02,91,91.02,1310
243,90.97,90.99,90.97,90.99,2850
244,90.95,90.955,90.92,90.95,5000
245,90.93,90.96,90.93,90.96,1200
246,90.96,90.96,90.94,90.94,2550
247,90.95,90.96,90.94,90.95,8822
248,90.93,90.96,90.93,90.95,11700
249,91.03,91.03,90.93,90.93,9747
250,91.04,91.06,91.03,91.06,2907
251,91.04,91.04,91.01,91.02,2106
252,91,91.04,91,91.04,1100
253,90.99,91.04,90.98,91,5568
254,90.91,90.97,90.91,90.97,2100
255,90.84,90.9,90.84,90.9,4155
256,90.8101,90.87,90.81,90.86,4623
257,90.81,90.84,90.8,90.83,13190
258,90.8,90.81,90.76,90.8,4395
259,90.794,90.81,90.794,90.81,207
260,90.79,90.81,90.7862,90.7862,3335
261,90.78,90.82,90.78,90.8,3300
262,90.75,90.7801,90.75,90.7801,3074
263,90.7,90.77,90.66,90.77,7900
264,90.65,90.71,90.65,90.7,4812
265,90.68,90.7,90.65,90.67,9250
266,90.71,90.71,90.68,90.7,10295
267,90.72,90.72,90.71,90.71,200
268,90.69,90.72,90.67,90.72,9396
269,90.72,90.72,90.7,90.7,2920
270,90.75,90.79,90.75,90.77,4400
271,90.76,90.77,90.74,90.77,3258
272,90.78,90.78,90.73,90.7566,6041
273,90.67,90.78,90.66,90.78,21582
274,90.73,90.75,90.66,90.675,2957
275,90.71,90.74,90.68,90.73,4400
276,90.71,90.74,90.71,90.72,1700
277,90.67,90.72,90.6501,90.71,3200
278,90.61,90.68,90.61,90.68,5549
279,90.6225,90.63,90.6,90.61,3500
280,90.645,90.66,90.59,90.6,27507
281,90.68,90.69,90.64,90.645,5000
282,90.75,90.76,90.67,90.68,8990
283,90.77,90.78,90.74,90.76,6706
284,90.79,90.81,90.76,90.78,9002
285,90.795,90.8,90.77,90.7999,9554
286,90.76,90.8,90.75,90.8,17718
287,90.76,90.77,90.72,90.75,6205
288,90.75,90.77,90.75,90.77,1249
289,90.72,90.78,90.72,90.75,1700
290,90.71,90.74,90.71,90.72,2245
291,90.71,90.73,90.71,90.71,1098
292,90.71,90.72,90.69,90.72,3408
293,90.74,90.77,90.69,90.73,5725
294,90.79,90.79,90.745,90.745,1838
295,90.74,90.8,90.74,90.8,3868
296,90.77,90.77,90.73,90.73,3223
297,90.77,90.79,90.74,90.77,5447
298,90.85,90.855,90.79,90.79,8700
299,90.79,90.8675,90.78,90.855,15826
300,90.78,90.8,90.74,90.8,21480
301,90.77,90.79,90.75,90.76,8800
302,90.74,90.77,90.71,90.77,7664
303,90.77,90.77,90.71,90.73,7287
304,90.75,90.77,90.74,90.77,6732
305,90.7,90.76,90.69,90.76,3398
306,90.74,90.76,90.71,90.71,4118
307,90.68,90.74,90.68,90.73,5579
308,90.64,90.69,90.62,90.68,3447
309,90.65,90.67,90.64,90.65,2325
310,90.61,90.665,90.6,90.665,2841
311,90.67,90.67,90.61,90.61,2200
312,90.69,90.71,90.671,90.71,3981
313,90.7,90.73,90.67,90.7,2595
314,90.67,90.725,90.67,90.71,2293
315,90.65,90.671,90.65,90.671,1105
316,90.65,90.65,90.63,90.65,2352
317,90.69,90.69,90.65,90.65,3811
318,90.7,90.7,90.68,90.68,1000
319,90.66,90.69,90.64,90.69,4700
320,90.72,90.73,90.69,90.71,4020
321,90.76,90.76,90.7,90.7,1000
322,90.75,90.76,90.73,90.75,2500
323,90.75,90.76,90.74,90.76,2200
324,90.74,90.7562,90.72,90.74,3806
325,90.77,90.77,90.75,90.75,2420
326,90.75,90.77,90.73,90.76,17073
327,90.76,90.76,90.72,90.751,8149
328,90.72,90.75,90.72,90.73,3240
329,90.71,90.73,90.7,90.71,2743
330,90.7,90.71,90.69,90.7,3801
331,90.755,90.78,90.69,90.71,5897
332,90.7,90.76,90.7,90.76,3903
333,90.725,90.74,90.7,90.7,4536
334,90.69,90.72,90.68,90.72,5516
335,90.7,90.7,90.685,90.685,2442
336,90.7,90.7,90.68,90.7,1700
337,90.6931,90.7,90.67,90.69,2634
338,90.7001,90.73,90.7,90.71,10480
339,90.67,90.72,90.67,90.71,5050
340,90.66,90.68,90.66,90.66,3510
341,90.71,90.73,90.67,90.67,3496
342,90.74,90.74,90.71,90.715,5312
343,90.74,90.75,90.72,90.73,3945
344,90.71,90.73,90.7,90.73,4321
345,90.69,90.72,90.67,90.72,4122
346,90.72,90.72,90.69,90.69,4505
347,90.63,90.72,90.63,90.72,7781
348,90.6,90.63,90.6,90.63,8160
349,90.61,90.6801,90.59,90.6,32704
350,90.59,90.62,90.59,90.61,9284
351,90.62,90.62,90.6,90.61,7556
352,90.63,90.64,90.61,90.61,4091
353,90.59,90.63,90.59,90.63,4304
354,90.56,90.59,90.53,90.5825,11616
355,90.5202,90.6,90.52,90.55,35808
356,90.53,90.545,90.5,90.51,8742
357,90.5,90.54,90.5,90.53,2824
358,90.44,90.51,90.44,90.495,8158
359,90.45,90.45,90.4,90.45,13514
360,90.52,90.54,90.47,90.49,14479
361,90.47,90.5237,90.47,90.5184,9093
362,90.48,90.48,90.4547,90.47,10600
363,90.54,90.55,90.49,90.49,9067
364,90.56,90.57,90.5301,90.54,6270
365,90.525,90.55,90.51,90.55,10864
366,90.4301,90.52,90.4301,90.52,21849
367,90.455,90.455,90.42,90.44,13322
368,90.5,90.52,90.46,90.46,7139
369,90.47,90.54,90.46,90.5,11539
370,90.44,90.47,90.44,90.45,9648
371,90.43,90.5,90.42,90.45,14933
372,90.41,90.45,90.41,90.43,7760
373,90.375,90.42,90.37,90.41,12327
374,90.3,90.4,90.3,90.38,8634
375,90.34,90.34,90.27,90.3,17140
376,90.37,90.37,90.32,90.32,12903
377,90.38,90.38,90.35,90.36,13506
378,90.43,90.44,90.39,90.39,8425
379,90.42,90.43,90.38,90.43,11117
380,90.39,90.45,90.37,90.41,14315
381,90.36,90.4,90.35,90.39,25058
382,90.35,90.37,90.33,90.36,18186
383,90.37,90.37,90.31,90.35,21651
384,90.35,90.38,90.34,90.36,13457
385,90.395,90.41,90.345,90.35,19706
386,90.4,90.45,90.395,90.4,23270
387,90.35,90.4001,90.34,90.4,31439
388,90.33,90.36,90.32,90.35,35116
389,90.36,90.36,90.32,90.33,27126
390,90.34,90.4,90.31,90.36,75862
