PPG,PPG Industries,Materials,8,Specialty Chemicals,26512316287,1398244
a1502285400,102.8,103.04,102.8,103.04,18126
1,103,103.01,103,103.01,200
2,103.02,103.04,102.96,102.96,400
3,102.88,103.04,102.88,103.04,900
4,102.99,103.01,102.865,102.9,4100
5,103.06,103.096,102.93,102.93,3919
6,102.97,103.17,102.97,103.09,39864
7,102.98,103.01,102.94,102.95,1400
8,102.82,103.01,102.81,103.01,2100
9,103,103,102.9,102.9271,1200
10,103.03,103.05,103.02,103.05,900
11,103.16,103.22,103.05,103.07,2864
12,103.15,103.15,103.11,103.12,900
13,103.2,103.2,103.165,103.165,400
14,103.245,103.27,103.1725,103.18,2970
15,103.3,103.32,103.23,103.23,2279
16,103.2,103.28,103.2,103.28,5298
17,103.21,103.21,103.18,103.1842,916
18,103.2,103.3,103.17,103.24,5300
19,103.25,103.25,103.22,103.22,2400
20,103.25,103.26,103.25,103.25,1900
21,103.25,103.31,103.24,103.29,7100
22,103.25,103.26,103.24,103.25,3300
23,103.23,103.25,103.18,103.25,2280
24,103.26,103.26,103.225,103.225,2800
25,103.48,103.49,103.24,103.27,21611
26,103.57,103.57,103.49,103.49,1900
27,103.5425,103.56,103.52,103.56,1300
28,103.54,103.54,103.485,103.52,300
29,103.6,103.6,103.53,103.55,2950
30,103.66,103.66,103.58,103.59,2300
31,103.695,103.72,103.64,103.64,1200
32,103.67,103.71,103.66,103.66,2850
33,103.66,103.71,103.65,103.66,4314
35,103.5,103.68,103.45,103.64,38609
36,103.38,103.5,103.36,103.5,3100
37,103.31,103.42,103.31,103.405,3100
38,103.4,103.4,103.31,103.31,2620
39,103.37,103.39,103.33,103.39,1300
40,103.4,103.4,103.39,103.39,1178
41,103.51,103.52,103.405,103.405,1725
42,103.53,103.53,103.49,103.52,2009
43,103.54,103.58,103.51,103.51,2500
44,103.58,103.58,103.53,103.55,803
45,103.57,103.65,103.57,103.6,8009
46,103.42,103.53,103.4,103.49,8412
47,103.45,103.4792,103.43,103.43,2200
48,103.46,103.46,103.43,103.43,1200
49,103.35,103.44,103.35,103.44,500
50,103.3,103.3,103.29,103.29,800
51,103.2468,103.35,103.225,103.2957,5911
52,103.25,103.3,103.25,103.26,2204
53,103.29,103.3199,103.26,103.275,3900
54,103.28,103.33,103.28,103.33,1100
55,103.34,103.34,103.29,103.3,300
56,103.34,103.34,103.34,103.34,500
57,103.39,103.39,103.35,103.35,2413
58,103.42,103.42,103.38,103.38,1000
59,103.33,103.46,103.33,103.43,5774
60,103.36,103.36,103.36,103.36,100
61,103.37,103.37,103.28,103.31,7126
62,103.38,103.41,103.38,103.38,2809
63,103.25,103.34,103.25,103.34,500
64,103.34,103.34,103.26,103.29,4041
65,103.35,103.36,103.31,103.35,2100
66,103.35,103.37,103.34,103.34,1500
67,103.33,103.34,103.32,103.32,1300
68,103.27,103.33,103.27,103.33,620
69,103.245,103.255,103.23,103.23,347
70,103.25,103.25,103.245,103.245,200
71,103.24,103.25,103.24,103.25,2500
72,103.25,103.27,103.2368,103.24,5979
73,103.25,103.2607,103.25,103.25,800
74,103.245,103.28,103.24,103.265,4274
75,103.26,103.27,103.23,103.23,2086
76,103.325,103.34,103.25,103.255,4700
77,103.3,103.33,103.3,103.32,6575
78,103.3033,103.3033,103.3033,103.3033,131
79,103.305,103.305,103.305,103.305,100
80,103.28,103.31,103.28,103.3,1769
81,103.245,103.275,103.23,103.255,696
82,103.24,103.25,103.23,103.23,400
83,103.251,103.26,103.24,103.25,5810
84,103.24,103.25,103.22,103.25,2500
85,103.21,103.24,103.21,103.223,1728
86,103.27,103.28,103.21,103.22,14834
87,103.32,103.33,103.27,103.28,1700
88,103.3,103.31,103.27,103.31,2838
90,103.26,103.27,103.25,103.27,300
91,103.25,103.2668,103.25,103.2668,957
92,103.1,103.25,103.1,103.24,31319
93,103.22,103.22,103.12,103.12,4049
94,103.25,103.25,103.23,103.23,500
96,103.09,103.27,103.09,103.255,7415
97,103.15,103.15,103.14,103.14,700
98,103.15,103.18,103.15,103.18,850
99,103.11,103.13,103.11,103.13,700
100,103.1,103.1,103.1,103.1,100
101,103.08,103.09,103.05,103.05,2400
102,103.04,103.1,103.04,103.1,1654
103,103.04,103.04,103.04,103.04,100
104,103.03,103.08,103.03,103.07,1500
105,103.07,103.09,103.06,103.06,1200
106,103.07,103.07,103.04,103.07,4430
107,103.02,103.07,103.02,103.05,1300
108,102.99,103.03,102.99,103.02,2800
109,103,103,102.97,102.9846,2512
110,103.04,103.04,103,103.01,2456
111,103.0396,103.07,103.03,103.03,3500
112,103.07,103.07,103.06,103.06,900
113,103.06,103.06,103.06,103.06,100
114,103.13,103.13,103.06,103.06,2200
116,103.08,103.11,103.07,103.11,1801
117,103.1,103.12,103.09,103.09,2100
118,103.06,103.12,103.06,103.12,2161
119,103.08,103.12,103.07,103.07,2400
120,103.1,103.11,103.07,103.08,3553
121,103.13,103.14,103.09,103.1,1300
122,103.11,103.17,103.11,103.14,1800
123,103.13,103.13,103.08,103.1,4205
124,103.08,103.1306,103.08,103.1306,1751
125,103.065,103.08,103.04,103.08,1400
126,103.05,103.06,103.03,103.04,1383
127,103.07,103.07,103.06,103.06,500
128,103.03,103.05,103.03,103.04,2056
129,103.04,103.06,103.03,103.04,2988
130,103.04,103.05,103.03,103.03,1508
131,103.04,103.09,103.03,103.06,3608
132,103.02,103.03,103,103.02,2680
133,103.04,103.05,103.035,103.05,800
134,103.01,103.03,103,103.03,500
135,103.04,103.04,103,103,1800
136,103.03,103.04,103.03,103.03,800
137,103.05,103.06,103.04,103.04,1700
138,103.0798,103.1,103.06,103.07,2517
139,103.06,103.0799,103.05,103.06,1105
140,103.08,103.08,103.04,103.05,1300
141,103.06,103.085,103.05,103.085,2400
142,103.04,103.05,103.04,103.05,1800
143,103.14,103.14,103.05,103.05,9786
144,103.2,103.2,103.12,103.1268,3357
145,103.225,103.25,103.2,103.22,2112
146,103.35,103.35,103.2,103.23,20110
147,103.47,103.47,103.3735,103.38,3899
148,103.4,103.46,103.4,103.45,2848
149,103.4,103.415,103.34,103.37,37491
151,103.385,103.385,103.37,103.37,200
152,103.31,103.385,103.25,103.385,4250
153,103.34,103.34,103.28,103.315,400
154,103.31,103.35,103.3,103.35,3528
155,103.2,103.32,103.2,103.32,1350
156,103.1575,103.22,103.15,103.21,2200
157,103.21,103.22,103.15,103.19,5651
158,103.22,103.22,103.19,103.205,3080
159,103.24,103.24,103.21,103.21,2100
160,103.2,103.22,103.2,103.22,1200
161,103.2199,103.2199,103.2199,103.2199,100
162,103.22,103.22,103.195,103.21,5000
163,103.24,103.24,103.22,103.22,500
164,103.27,103.27,103.24,103.25,400
165,103.28,103.28,103.27,103.27,1000
166,103.27,103.3,103.27,103.28,1302
167,103.3,103.3,103.29,103.29,500
168,103.2868,103.29,103.28,103.28,700
169,103.32,103.32,103.3,103.3,300
170,103.32,103.32,103.29,103.3,2159
171,103.44,103.44,103.33,103.33,42900
172,103.5524,103.5524,103.47,103.47,700
173,103.46,103.57,103.46,103.57,2100
174,103.4501,103.499,103.45,103.499,1059
175,103.5,103.5,103.47,103.49,1650
176,103.4901,103.53,103.4901,103.53,553
177,103.53,103.59,103.51,103.52,1624
178,103.4668,103.56,103.4668,103.53,6953
179,103.46,103.48,103.43,103.47,2290
180,103.42,103.47,103.42,103.47,700
181,103.44,103.44,103.44,103.44,200
182,103.44,103.45,103.4201,103.4201,2200
183,103.46,103.5,103.46,103.46,4211
184,103.58,103.58,103.47,103.47,10861
185,103.5,103.55,103.49,103.5301,800
186,103.55,103.55,103.51,103.51,3800
187,103.56,103.57,103.54,103.56,40212
188,103.63,103.63,103.53,103.57,32572
189,103.71,103.75,103.63,103.63,6029
190,103.67,103.72,103.63,103.71,8929
191,103.68,103.69,103.65,103.69,1194
192,103.62,103.65,103.62,103.65,3113
193,103.7079,103.71,103.64,103.64,1550
194,103.71,103.71,103.71,103.71,500
195,103.71,103.82,103.69,103.72,5330
196,103.67,103.71,103.6501,103.71,2220
197,103.695,103.695,103.68,103.68,700
198,103.7097,103.71,103.695,103.71,1100
199,103.7,103.71,103.69,103.695,700
200,103.69,103.7,103.665,103.7,7502
201,103.69,103.7,103.69,103.69,7110
202,103.68,103.68,103.66,103.68,7750
203,103.68,103.68,103.68,103.68,100
204,103.69,103.695,103.67,103.67,3800
205,103.7312,103.74,103.69,103.69,3434
206,103.73,103.73,103.73,103.73,230
207,103.72,103.73,103.71,103.73,2000
208,103.65,103.7,103.65,103.7,3223
209,103.61,103.64,103.61,103.64,1401
210,103.62,103.63,103.6,103.6,3300
211,103.61,103.61,103.61,103.61,100
212,103.62,103.63,103.6,103.6,6730
213,103.625,103.64,103.62,103.62,2837
214,103.63,103.63,103.61,103.625,5500
215,103.625,103.63,103.625,103.63,2688
216,103.61,103.635,103.61,103.63,5407
217,103.63,103.64,103.62,103.62,10602
218,103.6728,103.6728,103.625,103.63,5607
219,103.6825,103.69,103.67,103.67,2900
220,103.7,103.7,103.68,103.68,5911
221,103.74,103.74,103.7,103.71,2300
222,103.81,103.81,103.76,103.76,1900
223,103.78,103.81,103.78,103.81,4460
224,103.75,103.76,103.75,103.75,1800
225,103.72,103.74,103.72,103.74,1000
226,103.69,103.71,103.69,103.71,3300
227,103.6875,103.6875,103.6875,103.6875,100
228,103.71,103.72,103.685,103.685,6114
229,103.68,103.73,103.68,103.73,6600
230,103.635,103.68,103.63,103.68,739
231,103.67,103.67,103.64,103.64,2496
232,103.65,103.67,103.65,103.66,2055
233,103.62,103.67,103.62,103.65,2400
234,103.62,103.62,103.61,103.61,1200
235,103.62,103.62,103.62,103.62,300
236,103.64,103.64,103.61,103.61,2022
237,103.6,103.6448,103.6,103.6354,3198
238,103.63,103.63,103.62,103.62,1100
239,103.65,103.65,103.65,103.65,100
240,103.67,103.67,103.65,103.65,1800
241,103.68,103.69,103.68,103.68,1776
242,103.68,103.69,103.68,103.68,1905
243,103.7,103.7,103.69,103.69,2500
244,103.71,103.71,103.705,103.705,200
245,103.7,103.7,103.69,103.69,400
246,103.75,103.75,103.69,103.69,5601
247,103.74,103.77,103.74,103.75,2316
248,103.75,103.77,103.75,103.75,2642
249,103.7,103.735,103.7,103.735,500
250,103.67,103.71,103.67,103.7,1300
251,103.6555,103.68,103.6555,103.68,200
253,103.68,103.7,103.67,103.68,5369
254,103.66,103.68,103.66,103.6799,900
255,103.61,103.65,103.61,103.65,700
256,103.6,103.61,103.593,103.61,703
257,103.63,103.64,103.6,103.6,3272
258,103.6,103.61,103.6,103.61,500
259,103.6,103.6,103.6,103.6,2200
260,103.61,103.61,103.61,103.61,100
261,103.6,103.63,103.6,103.61,1900
262,103.61,103.61,103.6,103.6,1100
263,103.59,103.6,103.59,103.6,5639
264,103.59,103.6,103.59,103.59,1500
265,103.555,103.6,103.55,103.6,3639
266,103.55,103.55,103.545,103.55,600
267,103.53,103.55,103.525,103.535,900
268,103.5,103.5,103.495,103.495,200
269,103.56,103.56,103.52,103.52,1881
270,103.52,103.56,103.52,103.56,4058
271,103.47,103.53,103.47,103.52,10747
272,103.49,103.5,103.485,103.5,2299
273,103.48,103.48,103.48,103.48,200
274,103.4678,103.505,103.4678,103.5,2149
275,103.41,103.46,103.41,103.46,500
276,103.41,103.41,103.4,103.41,300
277,103.39,103.4,103.39,103.39,500
278,103.39,103.41,103.39,103.4,300
279,103.455,103.48,103.4,103.4,7226
280,103.48,103.58,103.45,103.45,12655
281,103.45,103.47,103.42,103.47,2300
282,103.45,103.45,103.44,103.44,2200
283,103.42,103.44,103.42,103.44,1809
284,103.39,103.415,103.39,103.415,300
285,103.38,103.41,103.38,103.41,1008
286,103.27,103.37,103.26,103.37,2887
287,103.26,103.26,103.26,103.26,800
288,103.24,103.26,103.24,103.24,2001
289,103.24,103.25,103.23,103.23,1000
290,103.26,103.28,103.25,103.25,2450
292,103.26,103.26,103.25,103.25,1100
293,103.3503,103.37,103.26,103.26,4716
294,103.36,103.37,103.34,103.34,1457
295,103.395,103.4,103.35,103.37,4409
296,103.4,103.4,103.3989,103.4,600
297,103.4,103.4,103.4,103.4,1100
298,103.43,103.44,103.41,103.41,1700
299,103.3801,103.42,103.3801,103.42,666
300,103.42,103.42,103.405,103.41,2000
301,103.42,103.43,103.4,103.4,3300
302,103.4,103.45,103.4,103.43,4239
303,103.4,103.4,103.4,103.4,300
304,103.35,103.39,103.35,103.39,908
305,103.3,103.3798,103.3,103.37,2003
306,103.34,103.36,103.32,103.32,2000
307,103.35,103.35,103.34,103.35,700
308,103.32,103.35,103.32,103.35,2238
309,103.29,103.31,103.29,103.3,4139
310,103.23,103.27,103.22,103.27,1600
311,103.235,103.25,103.23,103.23,1200
313,103.2692,103.28,103.25,103.25,1800
314,103.26,103.26,103.26,103.26,400
315,103.22,103.25,103.22,103.24,2255
316,103.215,103.23,103.215,103.23,200
317,103.2068,103.2068,103.19,103.2,1580
318,103.21,103.25,103.2,103.21,1500
319,103.1614,103.19,103.14,103.19,2566
320,103.17,103.18,103.12,103.12,2800
321,103.19,103.2,103.18,103.185,500
322,103.1768,103.2,103.1768,103.19,2084
323,103.2,103.2,103.19,103.19,1400
324,103.2038,103.21,103.2,103.2,418
325,103.21,103.22,103.21,103.21,2300
326,103.18,103.21,103.1701,103.21,1507
327,103.21,103.21,103.17,103.17,1216
328,103.2,103.2,103.18,103.1801,1559
329,103.2008,103.22,103.2,103.22,1200
330,103.18,103.2,103.16,103.19,1603
331,103.2,103.2,103.2,103.2,300
332,103.1901,103.2,103.1901,103.2,714
333,103.188,103.19,103.16,103.19,3918
334,103.15,103.18,103.1494,103.18,2100
335,103.13,103.16,103.12,103.16,3900
336,103.12,103.1347,103.12,103.13,1460
337,103.11,103.12,103.09,103.11,1254
338,103.1,103.11,103.09,103.11,2500
339,103.09,103.1,103.09,103.1,1329
340,103.06,103.08,103.05,103.08,2500
341,103.08,103.1,103.05,103.05,9248
342,103.08,103.1,103.075,103.08,3100
343,103.08,103.12,103.08,103.08,34168
344,103.07,103.1,103.07,103.07,5178
345,103.07,103.08,103.07,103.08,5240
346,103.07,103.09,103.05,103.07,7087
347,103.06,103.07,103.05,103.07,1610
348,103.07,103.07,103.04,103.06,2800
349,103.07,103.09,103.0638,103.0638,4191
350,103.08,103.08,103.06,103.08,2800
351,103.09,103.13,103.07,103.08,12417
352,103.08,103.09,103.07,103.08,1108
353,103.09,103.09,103.07,103.08,8585
354,103.08,103.09,103.07,103.08,4229
355,103.08,103.08,103.06,103.08,6082
356,103.08,103.1,103.0775,103.09,8352
357,103.055,103.095,103.045,103.09,6664
358,103.07,103.07,103.06,103.06,1950
359,103.04,103.06,103.04,103.06,1610
360,103.05,103.06,103.03,103.05,3525
361,103.04,103.06,103.03,103.04,3912
362,103.06,103.07,103.04,103.05,3870
363,103.06,103.09,103.06,103.08,3466
364,103.06,103.07,103.05,103.0656,1780
365,103.07,103.08,103.05,103.05,1300
366,103.05,103.07,103.03,103.07,6369
367,103.05,103.05,103.04,103.045,1500
368,103.065,103.07,103.0499,103.05,5933
369,103.08,103.09,103.065,103.07,32379
370,103.13,103.14,103.08,103.09,4100
371,103.19,103.21,103.13,103.135,4305
372,103.15,103.22,103.15,103.19,7871
373,103.13,103.145,103.125,103.14,4359
374,103.12,103.145,103.12,103.14,2100
375,103.19,103.19,103.12,103.13,7870
376,103.3,103.31,103.18,103.18,9199
377,103.3,103.33,103.295,103.299,5272
378,103.305,103.305,103.3,103.3,3580
379,103.355,103.36,103.3,103.3,13839
380,103.37,103.38,103.33,103.35,8457
381,103.35,103.38,103.34,103.37,9912
382,103.345,103.35,103.34,103.341,2144
383,103.37,103.38,103.345,103.345,7853
384,103.345,103.37,103.345,103.37,6979
385,103.35,103.36,103.34,103.35,9879
386,103.4,103.41,103.35,103.35,8015
387,103.42,103.43,103.4,103.405,4231
388,103.4,103.43,103.4,103.425,8659
389,103.39,103.4,103.38,103.4,10495
390,103.37,103.39,103.345,103.385,32924
