EOG,EOG Resources,Energy,3,Oil & Gas Exploration & Production,49341069647,3473809
a1497533400,88.86,88.86,88.86,88.86,27203
1,88.92,88.92,88.68,88.76,10093
2,88.97,89,88.86,88.9,5151
3,88.86,89.04,88.83,88.92,6658
4,89.03,89.06,88.72,88.79,13402
5,88.83,89.0466,88.74,89.0466,29086
6,88.57,88.79,88.5,88.79,7080
7,88.75,88.75,88.581,88.6,1500
8,88.679,88.78,88.67,88.75,2317
9,88.69,88.86,88.67,88.67,21310
10,88.64,88.71,88.62,88.67,2089
11,88.6,88.6605,88.53,88.6605,9206
12,88.55,88.59,88.457,88.58,6410
13,88.53,88.63,88.49,88.495,6700
14,88.6,88.655,88.47,88.51,3320
15,88.6,88.61,88.45,88.5899,4809
16,88.67,88.69,88.55,88.62,7351
17,88.65,88.72,88.62,88.63,7725
18,88.52,88.62,88.44,88.6,2600
19,88.48,88.61,88.48,88.49,6068
20,88.38,88.5,88.38,88.4714,4500
21,88.425,88.48,88.28,88.36,10728
22,88.44,88.49,88.42,88.44,16017
23,88.55,88.55,88.38,88.45,9394
24,88.65,88.76,88.525,88.54,11272
25,88.72,88.8,88.65,88.65,2700
26,88.85,88.95,88.73,88.75,10122
27,89.09,89.09,88.9,88.9,4500
28,89.14,89.15,88.99,89.09,13833
29,89.05,89.14,89.01,89.14,2091
30,88.99,89.08,88.97,89.02,11057
31,88.84,89,88.77,88.99,56800
32,88.625,88.86,88.62,88.86,5018
33,88.625,88.74,88.57,88.65,7901
34,88.75,88.82,88.625,88.625,8200
35,88.67,88.78,88.63,88.78,9667
36,88.7,88.75,88.65,88.65,6500
37,88.58,88.67,88.55,88.67,3736
38,88.54,88.59,88.43,88.56,6139
39,88.48,88.57,88.48,88.55,5479
40,88.48,88.5,88.46,88.47,5300
41,88.559,88.56,88.48,88.485,13788
42,88.49,88.56,88.455,88.54,8700
43,88.47,88.51,88.45,88.48,4400
44,88.44,88.51,88.38,88.45,7375
45,88.38,88.42,88.35,88.42,4642
46,88.5199,88.5199,88.36,88.41,2600
47,88.48,88.54,88.47,88.47,2467
48,88.54,88.54,88.45,88.51,6652
49,88.39,88.55,88.39,88.525,5500
50,88.36,88.4,88.33,88.4,3430
51,88.32,88.37,88.32,88.33,2682
52,88.35,88.37,88.3,88.31,2401
53,88.32,88.43,88.32,88.35,3602
54,88.32,88.34,88.3053,88.34,2300
55,88.28,88.31,88.21,88.31,5638
56,88.195,88.29,88.195,88.29,2000
57,88.16,88.22,88.15,88.18,8311
58,88.19,88.2599,88.14,88.16,8268
59,88.11,88.19,88.11,88.19,4640
60,88.18,88.26,88.14,88.14,20276
61,88.1899,88.3,88.15,88.18,9667
62,88.17,88.17,88.13,88.13,4500
63,88.07,88.15,88.05,88.15,7084
64,88.06,88.105,88.05,88.09,7191
65,88.0967,88.1,88.05,88.1,4516
66,88.08,88.1,88.07,88.1,5337
67,88.035,88.1,87.97,88.06,47599
68,88.14,88.14,88.02,88.03,9092
69,88.12,88.18,88.1,88.13,4600
70,88.03,88.145,88.02,88.145,5746
71,88.08,88.08,88.03,88.05,4600
72,87.97,88.09,87.97,88.08,40832
73,88.015,88.03,87.94,88,32094
74,87.98,88.04,87.97,88.01,11635
75,87.86,88.0099,87.86,87.98,8763
76,87.835,87.89,87.82,87.85,10120
77,87.735,87.82,87.7,87.81,13984
78,87.69,87.78,87.67,87.76,12822
79,87.67,87.72,87.645,87.68,23628
80,87.54,87.67,87.54,87.67,7750
81,87.52,87.57,87.48,87.54,19569
82,87.5,87.53,87.44,87.5,12509
83,87.5,87.6,87.5,87.53,8346
84,87.4948,87.5,87.43,87.5,9833
85,87.41,87.5,87.38,87.49,10718
86,87.51,87.51,87.38,87.38,5203
87,87.43,87.55,87.43,87.55,6611
88,87.601,87.601,87.44,87.44,8283
89,87.57,87.64,87.57,87.618,7785
90,87.57,87.59,87.53,87.58,2373
91,87.64,87.65,87.59,87.59,5180
92,87.59,87.63,87.57,87.62,4984
93,87.54,87.62,87.53,87.57,7362
94,87.59,87.63,87.547,87.549,1900
95,87.779,87.78,87.58,87.61,11050
96,87.67,87.79,87.67,87.78,1560
97,87.68,87.69,87.61,87.675,5513
98,87.72,87.72,87.63,87.69,6875
99,87.661,87.76,87.655,87.74,3419
100,87.6898,87.72,87.67,87.68,4842
101,87.66,87.73,87.66,87.69,4402
102,87.73,87.77,87.645,87.645,5826
103,87.625,87.75,87.625,87.75,2500
104,87.59,87.64,87.57,87.64,4200
105,87.53,87.6,87.5021,87.6,5950
106,87.5,87.53,87.5,87.53,4120
107,87.6,87.62,87.51,87.515,7035
108,87.59,87.66,87.575,87.59,3150
109,87.51,87.61,87.51,87.575,3861
110,87.57,87.585,87.51,87.5499,5841
111,87.605,87.64,87.57,87.585,5500
112,87.645,87.69,87.6,87.61,12300
113,87.56,87.63,87.54,87.63,4328
114,87.54,87.6,87.54,87.57,5386
115,87.59,87.59,87.54,87.54,7001
116,87.59,87.64,87.58,87.595,10131
117,87.59,87.61,87.56,87.56,8439
118,87.58,87.61,87.56,87.57,9332
119,87.63,87.63,87.56,87.6,20057
120,87.7,87.73,87.61,87.62,27029
121,87.725,87.74,87.64,87.7,23900
122,87.74,87.77,87.7,87.74,32207
123,87.74,87.79,87.71,87.75,20577
124,87.72,87.73,87.63,87.73,11667
125,87.68,87.73,87.68,87.685,7279
126,87.66,87.695,87.64,87.695,7751
127,87.68,87.7,87.66,87.675,6800
128,87.6,87.69,87.59,87.67,14004
129,87.6175,87.63,87.58,87.61,6676
130,87.5871,87.615,87.56,87.61,8771
131,87.52,87.5995,87.52,87.585,3050
132,87.57,87.57,87.53,87.53,3765
133,87.6,87.66,87.54,87.54,34551
134,87.565,87.6,87.5,87.6,9889
135,87.555,87.57,87.5,87.565,5663
136,87.57,87.6,87.54,87.54,2102
137,87.61,87.625,87.575,87.5899,12572
138,87.5789,87.62,87.5789,87.615,2851
139,87.56,87.57,87.54,87.57,2800
140,87.56,87.58,87.53,87.57,3215
141,87.56,87.57,87.55,87.57,3401
142,87.57,87.601,87.56,87.58,7413
143,87.53,87.6,87.51,87.59,4838
144,87.52,87.5682,87.52,87.53,2605
145,87.47,87.5,87.44,87.5,3627
146,87.46,87.48,87.43,87.47,2349
147,87.46,87.48,87.43,87.44,6257
148,87.4801,87.51,87.43,87.44,5200
149,87.47,87.52,87.47,87.49,4950
150,87.48,87.51,87.41,87.47,7825
151,87.54,87.58,87.5,87.5,5909
152,87.55,87.585,87.521,87.58,6105
153,87.55,87.59,87.55,87.59,6278
154,87.53,87.56,87.51,87.56,5748
155,87.53,87.55,87.52,87.53,6506
156,87.5081,87.56,87.5081,87.55,4981
157,87.45,87.5,87.45,87.5,2087
158,87.48,87.52,87.48,87.4899,1671
159,87.46,87.49,87.45,87.49,5175
160,87.44,87.47,87.44,87.45,2680
161,87.48,87.48,87.42,87.44,2514
162,87.49,87.51,87.465,87.48,3199
163,87.53,87.53,87.48,87.48,5491
164,87.52,87.56,87.52,87.53,5190
165,87.4375,87.52,87.4375,87.52,4600
166,87.51,87.51,87.45,87.45,3700
167,87.44,87.5,87.44,87.5,3800
168,87.47,87.48,87.46,87.47,2200
169,87.45,87.46,87.42,87.44,2848
170,87.44,87.45,87.42,87.45,1700
171,87.38,87.42,87.38,87.42,3910
172,87.41,87.45,87.39,87.39,2684
173,87.36,87.41,87.31,87.41,7850
174,87.3,87.38,87.28,87.38,5876
175,87.28,87.31,87.27,87.3,5732
176,87.34,87.36,87.2514,87.2841,5589
177,87.3,87.33,87.29,87.33,2091
178,87.28,87.29,87.2275,87.29,3342
179,87.28,87.28,87.24,87.25,2340
180,87.3,87.3,87.28,87.28,2877
181,87.29,87.3,87.28,87.28,600
182,87.325,87.33,87.29,87.305,5424
183,87.33,87.35,87.325,87.325,2190
184,87.35,87.35,87.31,87.33,2838
185,87.32,87.32,87.29,87.31,1947
186,87.315,87.315,87.3,87.3,1036
187,87.33,87.34,87.3,87.315,5373
188,87.365,87.38,87.345,87.345,6166
189,87.385,87.385,87.35,87.355,2100
190,87.42,87.4422,87.385,87.385,4250
191,87.44,87.4599,87.405,87.42,4311
192,87.42,87.44,87.41,87.44,3300
193,87.44,87.475,87.4,87.41,4010
194,87.45,87.46,87.43,87.44,2650
195,87.4756,87.486,87.43,87.44,2971
196,87.44,87.511,87.43,87.49,6650
197,87.49,87.494,87.46,87.48,708
198,87.4686,87.4999,87.4686,87.49,1612
199,87.46,87.46,87.42,87.46,4200
200,87.45,87.46,87.42,87.431,2859
201,87.37,87.44,87.37,87.44,2448
202,87.44,87.44,87.36,87.36,1400
203,87.49,87.52,87.48,87.48,2800
204,87.46,87.48,87.46,87.48,1400
205,87.48,87.49,87.44,87.46,2080
206,87.47,87.52,87.47,87.49,1760
207,87.47,87.49,87.46,87.47,2295
208,87.51,87.52,87.46,87.46,3300
209,87.48,87.51,87.47,87.51,3100
210,87.44,87.48,87.44,87.48,1600
211,87.505,87.515,87.48,87.5,1549
212,87.5356,87.555,87.49,87.49,2685
213,87.46,87.53,87.46,87.53,3700
214,87.54,87.54,87.477,87.49,1018
215,87.5,87.53,87.48,87.53,1700
216,87.46,87.49,87.46,87.49,1533
217,87.5,87.51,87.46,87.46,1600
218,87.45,87.491,87.44,87.49,3529
219,87.45,87.46,87.43,87.45,1700
220,87.35,87.45,87.35,87.45,3997
221,87.41,87.41,87.33,87.33,3390
222,87.37,87.37,87.36,87.37,1400
223,87.36,87.36,87.36,87.36,100
224,87.38,87.38,87.36,87.36,1358
225,87.38,87.39,87.37,87.38,835
226,87.38,87.38,87.36,87.37,6045
227,87.27,87.38,87.27,87.3742,6447
228,87.32,87.32,87.29,87.29,1914
229,87.3,87.3,87.28,87.3,1156
230,87.24,87.32,87.23,87.3,4388
231,87.26,87.27,87.2304,87.2304,3700
232,87.25,87.279,87.23,87.279,28668
233,87.28,87.28,87.23,87.23,1000
234,87.24,87.275,87.24,87.26,2781
235,87.28,87.2855,87.23,87.245,1402
236,87.24,87.27,87.21,87.27,2400
237,87.255,87.28,87.22,87.23,4200
238,87.23,87.26,87.23,87.26,1203
239,87.26,87.31,87.23,87.23,2749
240,87.27,87.3,87.26,87.27,1400
241,87.27,87.29,87.26,87.27,3810
242,87.33,87.37,87.27,87.285,11154
243,87.32,87.32,87.31,87.31,200
244,87.24,87.315,87.24,87.3,2100
245,87.3,87.315,87.27,87.27,4223
246,87.25,87.3,87.25,87.3,1900
247,87.23,87.26,87.23,87.24,4079
248,87.24,87.26,87.23,87.24,2200
249,87.24,87.28,87.24,87.25,3350
250,87.24,87.26,87.23,87.23,5655
251,87.21,87.245,87.21,87.23,7089
252,87.24,87.26,87.21,87.225,3950
253,87.2124,87.23,87.21,87.22,900
254,87.17,87.22,87.17,87.21,5986
255,87.17,87.1899,87.15,87.18,2806
256,87.11,87.15,87.11,87.15,2427
257,87.06,87.11,87.06,87.11,13132
258,87.0701,87.09,87.06,87.09,2814
259,87.105,87.11,87.1,87.1,2635
260,87.05,87.09,87.05,87.09,5598
261,87.03,87.04,87,87.04,4500
262,87.01,87.03,87.01,87.02,4800
263,87.04,87.04,87,87.0092,2673
264,87.05,87.06,87.03,87.04,4163
265,87.09,87.095,87.03,87.03,4500
266,87.09,87.1,87.07,87.07,6802
267,87.079,87.09,87.05,87.09,4126
268,87.03,87.0685,87.01,87.0685,3477
269,87.07,87.07,87,87,2500
270,86.96,87.06,86.96,87.06,11834
271,86.98,86.98,86.95,86.96,2782
272,86.9,86.975,86.9,86.97,3477
273,86.91,86.92,86.88,86.91,4323
274,86.93,86.96,86.9,86.9,5300
275,86.95,86.95,86.9,86.92,3652
276,86.985,86.985,86.93,86.94,9047
277,86.98,86.995,86.97,86.985,8127
278,86.97,86.98,86.97,86.975,5300
279,86.95,86.96,86.94,86.96,3200
280,86.96,86.99,86.94,86.95,18490
281,86.95,86.96,86.95,86.96,5746
282,86.88,86.965,86.88,86.95,8532
283,86.92,86.92,86.87,86.88,5102
284,86.9,86.92,86.895,86.92,1400
285,86.94,86.94,86.9,86.91,2420
286,86.96,86.96,86.91,86.91,6385
287,86.9996,87,86.96,86.96,10515
288,86.965,87,86.96,86.99,15829
289,86.955,86.975,86.94,86.965,4425
290,86.92,86.96,86.92,86.955,2500
291,86.9,86.95,86.88,86.93,6523
292,86.875,86.9086,86.86,86.89,4877
293,86.85,86.89,86.84,86.86,5656
294,86.87,86.88,86.84,86.86,5172
295,86.815,86.86,86.7776,86.86,6088
296,86.825,86.86,86.8,86.8,3001
297,86.88,86.9,86.83,86.83,9076
298,86.94,86.97,86.8964,86.9,5701
299,86.87,86.94,86.87,86.94,9448
300,86.885,86.89,86.8,86.88,14081
301,86.9,86.92,86.885,86.89,4064
302,86.92,86.94,86.9,86.915,4484
303,86.91,86.9399,86.9,86.92,9755
304,86.915,86.93,86.9,86.91,6390
305,86.91,86.95,86.88,86.915,16288
306,86.89,86.92,86.88,86.9,8498
307,86.92,86.92,86.87,86.88,5000
308,86.9386,86.96,86.92,86.94,15817
309,86.97,86.97,86.94,86.94,9631
310,87.0171,87.0171,86.96,86.97,7576
311,86.94,87.01,86.93,87.01,7119
312,86.9446,86.96,86.93,86.94,2713
313,86.87,86.94,86.86,86.94,8221
314,86.85,86.87,86.85,86.86,2600
315,86.86,86.87,86.86,86.86,1700
316,86.8893,86.91,86.85,86.85,6045
317,86.84,86.9,86.83,86.9,3180
318,86.86,86.86,86.83,86.83,2681
319,86.83,86.9,86.83,86.865,8441
320,86.845,86.85,86.83,86.849,11999
321,86.84,86.86,86.83,86.84,20485
322,86.82,86.85,86.8,86.84,6321
323,86.86,86.87,86.82,86.82,5241
324,86.83,86.84,86.79,86.84,17708
325,86.75,86.82,86.74,86.82,5635
326,86.775,86.78,86.74,86.74,5181
327,86.75,86.77,86.74,86.77,3230
328,86.724,86.75,86.72,86.75,3694
329,86.7,86.7202,86.69,86.71,3750
330,86.63,86.71,86.62,86.7007,4568
331,86.65,86.65,86.5814,86.62,7549
332,86.6802,86.7,86.63,86.657,5434
333,86.63,86.69,86.63,86.68,7600
334,86.61,86.64,86.61,86.63,5389
335,86.57,86.62,86.57,86.595,5338
336,86.61,86.62,86.57,86.58,9041
337,86.64,86.64,86.585,86.59,4782
338,86.68,86.68,86.62,86.6267,12096
339,86.72,86.73,86.66,86.69,13298
340,86.76,86.76,86.68,86.7,7258
341,86.75,86.75,86.71,86.75,7505
342,86.71,86.765,86.7,86.76,8213
343,86.64,86.7,86.64,86.7,5192
344,86.7,86.7,86.65,86.65,2992
345,86.72,86.74,86.7,86.7,5838
346,86.79,86.79,86.73,86.74,5076
347,86.785,86.79,86.765,86.78,5074
348,86.8,86.81,86.78,86.785,7365
349,86.78,86.81,86.78,86.79,18093
350,86.75,86.78,86.75,86.78,4209
351,86.76,86.76,86.72,86.73,4509
352,86.77,86.78,86.76,86.77,8665
353,86.76,86.8,86.76,86.78,5600
354,86.77,86.77,86.76,86.76,3062
355,86.79,86.79,86.77,86.78,3612
356,86.78,86.79,86.77,86.78,6243
357,86.77,86.8,86.77,86.78,7100
358,86.74,86.77,86.73,86.77,6820
359,86.77,86.77,86.75,86.75,2698
360,86.75,86.77,86.74,86.76,8852
361,86.645,86.74,86.645,86.74,20417
362,86.63,86.65,86.62,86.64,10657
363,86.64,86.655,86.63,86.6338,7973
364,86.65,86.66,86.6299,86.65,13699
365,86.72,86.73,86.66,86.66,10674
366,86.68,86.725,86.68,86.725,21615
367,86.74,86.755,86.68,86.68,15203
368,86.73,86.76,86.73,86.74,7489
369,86.69,86.76,86.69,86.72,10206
370,86.695,86.7185,86.69,86.695,9706
371,86.7,86.71,86.68,86.695,11110
372,86.69,86.7,86.68,86.695,11057
373,86.69,86.7,86.66,86.6999,13632
374,86.7,86.7,86.63,86.66,10658
375,86.74,86.74,86.68,86.71,13978
376,86.77,86.81,86.72,86.72,15451
377,86.74,86.79,86.71,86.77,12503
378,86.785,86.785,86.72,86.73,12862
379,86.87,86.9,86.7808,86.79,20249
380,86.902,86.92,86.88,86.88,10705
381,86.88,86.91,86.88,86.905,30953
382,86.94,86.95,86.87,86.88,36553
383,87.01,87.01,86.94,86.945,26486
384,87.045,87.08,87.005,87.01,25300
385,87.035,87.06,87.03,87.045,93835
386,87.045,87.05,87.02,87.035,51561
387,87.0575,87.06,87.03,87.05,116936
388,87.07,87.08,87.05,87.055,35425
389,87.09,87.09,87.06,87.07,36150
390,87.04,87.11,87.02,87.09,158761
