EOG,EOG Resources,Energy,3,Oil & Gas Exploration & Production,51816082846,3239144
a1496842200,90.16,90.22,90.16,90.22,21605
1,90.26,90.34,90.26,90.3,1500
2,90.42,90.42,90.21,90.2397,1188
3,90.72,90.72,90.4604,90.4604,2167
4,90.66,90.66,90.55,90.61,999
5,90.54,90.74,90.43,90.7025,2356
6,90.63,90.71,90.63,90.6399,1807
7,90.5045,90.58,90.5045,90.58,940
8,90.51,90.51,90.5085,90.5085,500
9,90.57,90.65,90.41,90.4723,2300
10,90.55,90.55,90.515,90.54,2675
11,90.66,90.69,90.55,90.55,1000
12,90.67,90.75,90.64,90.73,5676
13,90.71,90.71,90.62,90.63,3950
14,90.75,90.75,90.64,90.69,4225
15,90.8101,90.88,90.72,90.765,8047
16,90.83,90.94,90.83,90.88,4000
17,90.85,90.87,90.77,90.82,3670
18,90.78,90.85,90.78,90.85,500
19,90.58,90.76,90.57,90.76,4795
20,90.6,90.63,90.57,90.59,2700
21,90.67,90.73,90.58,90.59,4833
22,90.73,90.77,90.63,90.63,3600
23,90.7,90.81,90.7,90.72,1900
24,90.68,90.72,90.68,90.72,1334
25,90.54,90.67,90.54,90.67,3000
26,90.58,90.62,90.54,90.56,3213
27,90.45,90.61,90.45,90.59,4500
28,90.49,90.52,90.42,90.4401,4012
29,90.485,90.54,90.44,90.495,4786
30,90.65,90.65,90.5,90.517,6450
31,90.6,90.73,90.6,90.64,8100
32,90.5,90.59,90.48,90.59,3900
33,90.4932,90.54,90.47,90.54,4281
34,90.45,90.5,90.45,90.5,3223
35,90.43,90.45,90.43,90.45,3502
36,90.54,90.54,90.41,90.445,21406
37,90.515,90.58,90.5,90.54,6647
38,90.515,90.52,90.49,90.51,2607
39,90.47,90.505,90.44,90.5,6590
40,90.55,90.55,90.44,90.47,4300
41,90.61,90.61,90.52,90.52,3697
42,90.71,90.71,90.62,90.62,1100
43,90.71,90.74,90.67,90.685,3000
44,90.59,90.67,90.57,90.66,4313
45,90.67,90.67,90.58,90.6,2740
46,90.69,90.76,90.65,90.6614,6209
47,90.65,90.67,90.63,90.67,2250
48,90.68,90.69,90.62,90.67,5000
49,90.585,90.63,90.585,90.63,1200
50,90.45,90.57,90.45,90.57,7000
51,90.4,90.465,90.37,90.465,5500
52,90.39,90.42,90.33,90.36,3800
53,90.42,90.42,90.32,90.3952,2650
54,90.51,90.51,90.37,90.37,1200
55,90.51,90.54,90.51,90.53,400
56,90.42,90.47,90.42,90.47,1718
57,90.42,90.43,90.35,90.43,2800
58,90.44,90.49,90.44,90.44,400
59,90.44,90.45,90.38,90.45,2050
60,90.07,90.55,90.07,90.48,10388
61,89.77,90.185,89.67,90.07,32829
62,89.66,89.86,89.36,89.77,25875
63,89.8,89.99,89.5289,89.7,19181
64,89.735,89.81,89.61,89.78,18659
65,89.67,89.88,89.57,89.78,22462
66,89.09,89.61,89.08,89.61,18380
67,89.12,89.34,89.08,89.1,11626
68,89.305,89.32,89.09,89.12,12660
69,89.42,89.6,89.24,89.25,17797
70,89.27,89.42,89.26,89.39,6073
71,89.335,89.59,89.25,89.28,18313
72,89.41,89.45,89.345,89.35,3304
73,89.275,89.46,89.2,89.385,5740
74,89.44,89.45,89.24,89.3,8900
75,89.23,89.46,89.19,89.455,3000
76,89.35,89.35,89.1,89.18,21281
77,89.2,89.36,89.09,89.3,10500
78,89.31,89.48,89.22,89.24,11699
79,89.27,89.31,89.12,89.3,13841
80,89.17,89.36,89.17,89.27,5405
81,89.135,89.2,89.09,89.165,14616
82,89.2,89.2,89.04,89.16,22630
83,89.285,89.32,89.185,89.2,31443
84,89.104,89.3,89.03,89.3,8700
85,89.185,89.255,89.09,89.092,11096
86,89.2,89.28,89.13,89.21,6056
87,89.0875,89.22,89.05,89.18,10020
88,89.19,89.23,89.095,89.095,7600
89,89.12,89.23,89.08,89.175,10282
90,89.21,89.21,89.1,89.12,8112
91,89.04,89.18,89.01,89.17,8470
92,88.9,89.05,88.87,89.03,14209
93,88.9,88.925,88.819,88.86,9757
94,88.87,88.88,88.755,88.88,11359
95,88.89,88.89,88.82,88.865,6099
96,88.78,88.8827,88.75,88.87,6548
97,88.76,88.78,88.65,88.78,4940
98,88.91,88.91,88.73,88.76,7720
99,88.95,88.95,88.87,88.94,3600
100,89.03,89.07,88.97,89,4800
101,88.89,89.03,88.89,89.03,4041
102,88.95,88.95,88.8844,88.89,3626
103,88.97,89.04,88.93,88.94,11017
104,89.02,89.07,88.97,88.97,7550
105,89.11,89.11,88.96,89.01,8743
106,89.01,89.12,88.95,89.08,5110
107,88.97,89.07,88.97,89.01,3400
108,88.97,89.04,88.97,88.99,1900
109,88.9,88.9859,88.9,88.9859,1942
110,88.945,88.96,88.9,88.9,4929
111,88.98,89.01,88.94,88.97,5535
112,88.92,89.06,88.92,88.99,6900
113,88.995,89,88.88,88.92,7747
114,88.8901,88.95,88.89,88.95,1845
115,88.94,88.94,88.88,88.905,3174
116,88.77,88.9,88.77,88.9,5350
117,88.64,88.77,88.64,88.76,4485
118,88.58,88.7,88.56,88.66,13183
119,88.7,88.7,88.56,88.582,12193
120,88.63,88.72,88.63,88.71,8710
121,88.74,88.74,88.55,88.64,6500
122,88.68,88.8,88.65,88.75,3964
123,88.76,88.76,88.6701,88.6702,2947
124,88.71,88.82,88.71,88.76,2700
125,88.66,88.75,88.63,88.725,16400
126,88.645,88.66,88.5701,88.64,17881
127,88.63,88.669,88.54,88.66,12575
128,88.62,88.69,88.61,88.65,7511
129,88.465,88.61,88.44,88.61,23359
130,88.27,88.44,88.26,88.44,14914
131,88.33,88.39,88.27,88.27,11933
132,88.21,88.34,88.11,88.34,16191
133,88.09,88.21,88.09,88.19,16521
134,87.9,88.14,87.83,88.12,42498
135,87.88,87.95,87.87,87.89,5538
136,87.92,87.92,87.84,87.8773,7810
137,88.03,88.03,87.92,87.92,12510
138,87.94,88.05,87.92,88.03,6035
139,88.03,88.03,87.95,87.95,2371
140,87.97,88.06,87.97,88.05,4672
141,87.8,87.96,87.8,87.95,12651
142,87.83,87.84,87.795,87.805,8933
143,87.847,87.88,87.835,87.85,5700
144,87.905,87.92,87.835,87.85,8899
145,87.91,87.9128,87.82,87.89,10136
146,87.88,87.93,87.845,87.9299,5221
147,87.97,88,87.9,87.9,7112
148,88,88,87.96,87.96,5309
149,88.03,88.07,88.01,88.01,3092
150,88.08,88.08,87.985,88.04,8914
151,88.22,88.22,88,88.08,41028
152,88.21,88.23,88.17,88.22,45210
153,88.23,88.28,88.19,88.22,7631
154,88.22,88.24,88.2,88.225,6801
155,88.2,88.205,88.2,88.205,500
156,88.28,88.28,88.2,88.2,2850
157,88.32,88.33,88.25,88.28,4377
158,88.37,88.37,88.31,88.31,2800
159,88.45,88.45,88.38,88.38,2600
160,88.42,88.469,88.4,88.44,1881
161,88.39,88.47,88.39,88.42,2500
162,88.41,88.43,88.41,88.415,1200
163,88.355,88.39,88.34,88.39,1450
164,88.375,88.39,88.36,88.36,7380
165,88.31,88.38,88.28,88.37,4527
166,88.24,88.31,88.24,88.305,1400
167,88.23,88.25,88.225,88.225,2800
168,88.2,88.24,88.19,88.22,6400
169,88.2,88.2101,88.18,88.19,9058
170,88.2,88.2201,88.18,88.2,19665
171,88.195,88.22,88.19,88.2,12559
172,88.2,88.21,88.17,88.2,11964
173,88.2,88.22,88.19,88.21,12637
174,88.21,88.21,88.18,88.2,5500
175,88.2,88.22,88.2,88.21,7681
176,88.2,88.22,88.19,88.2,9246
177,88.2,88.22,88.19,88.2,8502
178,88.226,88.23,88.2,88.21,5824
179,88.2,88.24,88.19,88.21,7068
180,88.13,88.195,88.09,88.19,3300
181,88.08,88.135,88.08,88.135,1101
182,88.03,88.11,87.9903,88.07,5653
183,88.13,88.13,88.06,88.06,2000
184,87.95,88.06,87.95,88.06,12235
185,87.8301,87.93,87.83,87.93,8737
186,87.78,87.86,87.77,87.84,18844
187,87.66,87.7675,87.631,87.7675,9901
188,87.62,87.71,87.62,87.67,12289
189,87.66,87.69,87.59,87.62,8801
190,87.66,87.69,87.64,87.6598,3150
191,87.66,87.7,87.64,87.69,2500
192,87.65,87.7,87.65,87.66,3333
193,87.71,87.72,87.66,87.67,3800
194,87.64,87.712,87.61,87.712,2700
195,87.63,87.6699,87.621,87.6468,12217
196,87.58,87.63,87.55,87.63,15211
197,87.548,87.59,87.5,87.59,16467
198,87.425,87.59,87.41,87.55,22489
199,87.44,87.47,87.43,87.4645,1817
200,87.5,87.54,87.44,87.44,4525
201,87.6,87.6,87.52,87.52,3205
202,87.6293,87.63,87.53,87.6,4025
203,87.67,87.71,87.621,87.621,5185
204,87.67,87.68,87.65,87.68,5743
205,87.615,87.66,87.59,87.66,11641
206,87.615,87.62,87.57,87.615,7108
207,87.6463,87.68,87.6116,87.628,6215
208,87.72,87.7375,87.65,87.65,10206
209,87.82,87.82,87.72,87.72,6225
210,87.81,87.8397,87.8,87.8002,6342
211,87.7558,87.83,87.72,87.83,9309
212,87.76,87.77,87.73,87.73,6137
213,87.8,87.8,87.76,87.78,4500
214,87.8,87.82,87.77,87.78,2850
215,87.77,87.81,87.77,87.8,1100
216,87.83,87.83,87.78,87.78,2932
217,87.79,87.83,87.79,87.83,1281
218,87.81,87.81,87.77,87.8,1718
219,87.78,87.8,87.78,87.8,500
220,87.76,87.8,87.76,87.78,3900
221,87.7325,87.79,87.72,87.79,3503
222,87.75,87.76,87.7103,87.7103,1400
223,87.72,87.74,87.7,87.71,1320
224,87.76,87.76,87.7,87.76,8220
225,87.75,87.76,87.73,87.76,2600
226,87.67,87.75,87.65,87.74,10783
227,87.7,87.76,87.68,87.68,5484
228,87.65,87.68,87.61,87.68,2800
229,87.58,87.63,87.58,87.63,1100
230,87.58,87.59,87.56,87.58,2810
231,87.56,87.57,87.51,87.57,3797
232,87.56,87.56,87.56,87.56,200
233,87.57,87.57,87.55,87.56,600
234,87.61,87.62,87.56,87.56,2725
235,87.71,87.71,87.63,87.63,1025
236,87.74,87.8,87.74,87.75,1800
237,87.8,87.8,87.7301,87.7301,1202
238,87.77,87.84,87.76,87.81,2844
239,87.84,87.84,87.75,87.75,4735
240,87.84,87.84,87.81,87.84,24182
241,87.78,87.8699,87.78,87.84,18145
242,87.8,87.8,87.7675,87.7675,3267
243,87.81,87.83,87.8,87.8,3600
244,87.72,87.81,87.711,87.8,4400
245,87.72,87.74,87.68,87.7,5825
246,87.72,87.72,87.7,87.71,709
247,87.74,87.76,87.72,87.74,7010
248,87.76,87.79,87.735,87.7373,12972
249,87.81,87.81,87.7675,87.77,7100
250,87.83,87.84,87.79,87.79,21003
251,87.84,87.85,87.82,87.8293,4600
252,87.77,87.84,87.66,87.84,15629
253,87.8,87.82,87.75,87.78,8846
254,87.781,87.86,87.781,87.81,6436
255,87.805,87.82,87.78,87.82,4256
256,87.75,87.82,87.7477,87.82,7950
257,87.84,87.845,87.75,87.75,5107
258,87.84,87.878,87.8204,87.84,14296
259,87.9171,87.97,87.86,87.86,14156
260,87.91,87.94,87.9,87.93,12901
261,87.85,87.89,87.82,87.89,5242
262,87.845,87.8525,87.835,87.835,6772
263,87.89,87.89,87.8475,87.8475,4200
264,87.9,87.9,87.88,87.9,3900
265,87.9095,87.91,87.89,87.91,2100
266,87.97,87.97,87.91,87.92,4400
267,88.02,88.04,87.98,88,13242
268,88,88.03,88,88.01,9669
269,87.93,88.015,87.93,88.01,5950
270,87.87,87.92,87.8,87.92,7086
271,87.91,87.91,87.89,87.9,2300
272,87.97,87.99,87.9,87.9,4004
273,87.979,87.98,87.97,87.97,2876
274,87.96,88,87.96,87.96,10096
275,87.925,87.96,87.925,87.94,9667
276,87.96,87.99,87.8775,87.89,4434
277,87.791,87.925,87.791,87.91,2500
278,87.95,87.95,87.81,87.81,3702
279,87.97,87.97,87.92,87.94,4577
280,88.01,88.01,87.94,87.95,16721
281,88.03,88.03,87.99,87.99,6607
282,88.08,88.1,88,88,5600
283,88.15,88.15,88.06,88.1,6379
284,88.21,88.21,88.16,88.16,6595
285,88.1829,88.235,88.18,88.21,7436
286,88.235,88.235,88.18,88.19,7107
287,88.27,88.27,88.2,88.22,6907
288,88.31,88.31,88.28,88.28,1800
289,88.33,88.33,88.3073,88.31,4112
290,88.37,88.37,88.315,88.33,2664
291,88.335,88.41,88.33,88.37,18592
292,88.265,88.34,88.23,88.335,8500
293,88.21,88.27,88.18,88.26,15918
294,88.2186,88.23,88.2,88.2,1500
295,88.26,88.26,88.2281,88.23,5201
296,88.33,88.33,88.28,88.28,3139
297,88.1,88.33,88.08,88.31,19349
298,88.25,88.25,88.12,88.12,12165
299,88.201,88.27,88.2,88.25,14019
300,88.3,88.3,88.16,88.18,8854
301,88.38,88.39,88.3,88.3,16588
302,88.49,88.51,88.36,88.36,32054
303,88.53,88.54,88.495,88.5,14154
304,88.57,88.59,88.51,88.53,18783
305,88.57,88.63,88.51,88.56,26762
306,88.38,88.63,88.36,88.57,28945
307,88.45,88.45,88.37,88.38,22380
308,88.45,88.47,88.436,88.45,7635
309,88.42,88.45,88.39,88.44,13609
310,88.45,88.45,88.41,88.43,3581
311,88.49,88.49,88.44,88.45,4800
312,88.435,88.49,88.42,88.49,16954
313,88.36,88.44,88.36,88.44,2500
314,88.3,88.4,88.27,88.34,7820
315,88.36,88.36,88.305,88.305,1365
316,88.41,88.41,88.36,88.36,9677
317,88.45,88.45,88.4096,88.42,4948
318,88.52,88.52,88.441,88.441,1950
319,88.5286,88.53,88.5,88.525,19672
320,88.55,88.56,88.53,88.53,4041
321,88.515,88.57,88.515,88.545,27595
322,88.48,88.529,88.45,88.515,3236
323,88.4,88.47,88.4,88.47,5917
324,88.385,88.42,88.37,88.38,2671
325,88.3,88.36,88.3,88.36,2200
326,88.235,88.31,88.22,88.29,11681
327,88.33,88.34,88.21,88.24,11500
328,88.275,88.345,88.26,88.345,16631
329,88.29,88.3,88.27,88.29,4500
330,88.23,88.28,88.23,88.28,1605
331,88.13,88.22,88.11,88.22,7501
332,88.17,88.1943,88.12,88.14,6038
333,88.13,88.18,88.05,88.18,20718
334,88.15,88.175,88.1,88.1,4791
335,88.12,88.17,88.11,88.15,3861
336,88.105,88.13,88.08,88.13,5647
337,88.04,88.12,88.04,88.105,18210
338,88.119,88.119,88.04,88.04,18146
339,88.14,88.14,88.11,88.11,4417
340,88.2,88.24,88.12,88.135,8153
341,88.2,88.2,88.19,88.2,8964
342,88.23,88.23,88.2,88.2,1882
343,88.235,88.24,88.227,88.227,8077
344,88.2866,88.3,88.24,88.24,9550
345,88.34,88.34,88.29,88.3,7245
346,88.36,88.36,88.34,88.34,13876
347,88.35,88.385,88.33,88.37,16153
348,88.315,88.355,88.3,88.34,15749
349,88.29,88.33,88.29,88.31,14911
350,88.23,88.29,88.22,88.29,7051
351,88.215,88.24,88.21,88.23,7550
352,88.28,88.29,88.21,88.21,18175
353,88.35,88.36,88.29,88.29,21353
354,88.3485,88.3635,88.33,88.35,29681
355,88.44,88.44,88.34,88.34,20333
356,88.49,88.51,88.44,88.46,21344
357,88.46,88.49,88.45,88.49,3531
358,88.58,88.58,88.46,88.46,12369
359,88.58,88.58,88.55,88.57,8934
360,88.475,88.57,88.47,88.56,10668
361,88.57,88.57,88.47,88.47,23330
362,88.53,88.59,88.52,88.57,9115
363,88.635,88.635,88.525,88.53,21695
364,88.58,88.69,88.58,88.63,7944
365,88.6,88.62,88.561,88.58,17949
366,88.555,88.62,88.555,88.605,6374
367,88.515,88.58,88.5,88.55,17766
368,88.525,88.53,88.51,88.52,9788
369,88.43,88.55,88.43,88.52,18548
370,88.4,88.45,88.36,88.44,10932
371,88.29,88.365,88.28,88.36,10148
372,88.31,88.33,88.3,88.3,7697
373,88.37,88.49,88.305,88.31,28893
374,88.36,88.39,88.33,88.36,15440
375,88.34,88.36,88.29,88.35,18286
376,88.23,88.365,88.23,88.33,23089
377,88.18,88.2655,88.14,88.21,19187
378,88.22,88.27,88.15,88.2,49241
379,88.23,88.28,88.17,88.22,24864
380,88.09,88.22,88.08,88.22,15331
381,88.05,88.17,88.03,88.07,43484
382,88.04,88.06,88.02,88.04,18372
383,88.03,88.05,87.99,88.04,21539
384,87.97,88.02,87.97,88.02,17847
385,88.15,88.21,87.95,87.96,48277
386,88.1,88.14,88.08,88.14,15990
387,88.02,88.105,88.01,88.105,30347
388,88.11,88.13,88.0075,88.02,31080
389,88.11,88.14,88.09,88.11,19173
390,88.145,88.18,88.11,88.12,33136
