PPG,PPG Industries,Materials,8,Specialty Chemicals,27635935069,1152147
a1496842200,108.74,108.74,108.52,108.57,10319
1,108.38,108.75,108.38,108.505,700
2,108.375,108.56,108.37,108.56,300
3,108.07,108.38,108.07,108.38,2700
4,107.99,108.15,107.99,108.15,275
5,107.99,108.3,107.99,108.1,1715
6,108.275,108.275,108.05,108.135,2500
7,108.06,108.28,108.06,108.185,11600
8,107.98,108.17,107.98,108.17,96019
9,107.97,108.03,107.96,108.03,4831
10,107.945,107.97,107.945,107.97,200
11,107.975,108.03,107.975,107.98,52900
12,107.91,108.02,107.9,108.01,4520
13,108.06,108.06,107.85,107.94,3343
14,107.91,108.03,107.9,108.03,4600
15,108.1,108.1,107.91,107.91,4700
16,107.95,108.08,107.95,108.07,43400
17,107.87,107.8712,107.87,107.8712,347
18,107.905,107.92,107.84,107.87,2938
19,107.99,108.01,107.89,107.89,2524
20,107.95,107.995,107.91,107.995,3000
21,107.9,107.96,107.89,107.96,2600
22,107.91,108.01,107.85,107.9,5016
23,107.87,107.92,107.85,107.92,5800
24,107.9,107.92,107.87,107.87,1300
25,107.9,108,107.865,107.93,45309
26,107.94,107.94,107.83,107.9,3417
27,107.88,107.96,107.87,107.96,1600
28,107.89,107.89,107.89,107.89,300
29,107.915,107.94,107.88,107.88,2000
30,107.9,107.9,107.86,107.88,1700
31,107.99,108.02,107.9,107.92,7389
32,108.15,108.23,107.99,107.99,6952
33,108.07,108.15,108.07,108.12,2600
34,108.07,108.1,108.025,108.03,3520
35,108.14,108.14,108.08,108.08,1346
36,108.07,108.21,108.07,108.21,3796
37,108.085,108.1,108.08,108.08,1600
38,108,108.07,108,108.07,2050
39,108.03,108.035,107.99,107.99,2901
40,107.96,108.03,107.96,108.03,1500
41,107.95,107.96,107.9255,107.96,1200
42,107.955,108.01,107.93,107.98,3700
43,107.97,107.99,107.97,107.98,600
45,107.98,108,107.96,107.99,4349
46,107.97,108.02,107.95,107.97,8100
48,107.94,107.95,107.93,107.95,1000
49,107.97,107.97,107.97,107.97,446
50,107.97,107.99,107.94,107.96,2533
51,107.97,107.98,107.96,107.98,500
52,107.92,107.93,107.9,107.93,4000
53,107.8822,107.8822,107.8822,107.8822,231
54,107.94,107.95,107.92,107.92,3756
55,107.9,107.93,107.9,107.93,800
56,107.87,107.9,107.85,107.9,2500
57,107.83,107.86,107.83,107.86,1300
58,107.82,107.835,107.81,107.835,1100
59,107.86,107.86,107.82,107.82,1000
60,107.83,107.87,107.83,107.83,2300
61,107.71,107.83,107.6,107.8,6480
62,107.68,107.69,107.67,107.67,600
63,107.76,107.77,107.67,107.68,2734
64,107.775,107.78,107.74,107.77,1587
65,107.79,107.85,107.74,107.8,3446
66,107.73,107.8,107.71,107.76,1200
67,107.67,107.71,107.6,107.71,1700
68,107.64,107.7,107.63,107.69,1602
69,107.69,107.7,107.65,107.65,1250
70,107.67,107.7,107.67,107.69,1694
71,107.72,107.73,107.62,107.69,2700
72,107.79,107.79,107.75,107.75,400
73,107.84,107.84,107.78,107.8251,800
74,107.88,107.88,107.83,107.86,1300
75,107.89,107.89,107.855,107.88,600
76,107.82,107.86,107.77,107.83,2805
77,107.85,107.85,107.85,107.85,300
78,107.96,107.96,107.83,107.83,2900
79,107.9175,107.94,107.88,107.91,3103
80,108,108,107.922,107.922,2803
81,107.92,108.03,107.89,108,12740
82,107.89,107.91,107.81,107.91,7600
83,107.8884,107.9,107.85,107.89,25001
84,107.76,107.89,107.76,107.85,102583
85,107.82,107.83,107.78,107.78,1700
86,107.8,107.9,107.79,107.87,112750
87,107.75,107.81,107.72,107.79,12046
89,107.8,107.8,107.77,107.77,6217
90,107.8,107.8,107.78,107.8,3559
91,107.8,107.8,107.77,107.8,4100
92,107.79,107.79,107.77,107.79,1111
93,107.78,107.8,107.78,107.79,1900
94,107.74,107.78,107.74,107.77,2810
95,107.74,107.75,107.73,107.75,2000
96,107.75,107.76,107.74,107.75,2500
97,107.83,107.83,107.76,107.76,3500
98,107.94,107.94,107.815,107.83,5300
99,107.93,107.94,107.93,107.94,400
101,107.94,107.95,107.9,107.95,4356
102,107.94,107.96,107.9,107.95,1400
103,107.94,107.95,107.94,107.95,300
105,107.9,107.95,107.88,107.95,1514
106,107.8997,107.9,107.86,107.87,3622
107,107.84,107.91,107.84,107.885,3262
108,107.83,107.84,107.82,107.84,1401
109,107.83,107.83,107.82,107.83,4153
110,107.83,107.86,107.83,107.84,2300
111,107.83,107.83,107.8,107.8,4345
112,107.89,107.89,107.84,107.84,1478
113,107.92,107.92,107.9,107.9,492
114,107.98,107.98,107.94,107.94,913
115,107.94,107.99,107.93,107.99,2401
116,107.88,107.92,107.88,107.92,600
117,107.81,107.86,107.78,107.86,2800
118,107.81,107.81,107.81,107.81,100
119,107.805,107.82,107.805,107.82,600
120,107.75,107.8,107.74,107.79,3230
121,107.73,107.76,107.72,107.72,2805
122,107.83,107.83,107.76,107.76,722
123,107.84,107.84,107.75,107.79,5062
124,107.79,107.7928,107.79,107.7928,200
125,107.75,107.83,107.75,107.82,2500
126,107.72,107.7681,107.72,107.75,700
128,107.735,107.74,107.71,107.74,7000
129,107.75,107.76,107.7,107.735,6300
130,107.77,107.78,107.73,107.74,2300
131,107.75,107.77,107.74,107.77,2762
132,107.74,107.78,107.73,107.75,7280
133,107.77,107.77,107.76,107.76,600
134,107.79,107.79,107.77,107.77,900
135,107.79,107.79,107.75,107.77,1700
136,107.82,107.82,107.75,107.79,3900
137,107.82,107.82,107.82,107.82,400
138,107.81,107.81,107.81,107.81,600
139,107.84,107.84,107.82,107.82,2143
140,107.8,107.83,107.8,107.821,3800
141,107.77,107.79,107.77,107.79,400
142,107.78,107.79,107.77,107.79,2106
144,107.8,107.8,107.78,107.8,3090
145,107.77,107.79,107.77,107.78,1100
146,107.775,107.79,107.7699,107.7699,576
147,107.73,107.79,107.73,107.79,2900
148,107.74,107.75,107.74,107.74,800
149,107.75,107.75,107.74,107.74,1200
150,107.72,107.75,107.715,107.72,1300
151,107.72,107.72,107.72,107.72,300
152,107.66,107.72,107.66,107.7,2600
153,107.655,107.68,107.64,107.68,1657
154,107.64,107.65,107.615,107.64,42750
156,107.66,107.67,107.65,107.66,1300
157,107.67,107.67,107.6498,107.6498,708
158,107.74,107.74,107.68,107.68,800
159,107.75,107.75,107.75,107.75,600
160,107.75,107.75,107.72,107.72,600
161,107.84,107.88,107.75,107.75,3890
162,107.876,107.88,107.85,107.85,1092
163,107.84,107.92,107.84,107.88,1837
164,107.89,107.89,107.86,107.86,900
165,107.93,107.93,107.9,107.9,1000
166,107.91,107.93,107.91,107.93,1900
167,107.905,107.905,107.905,107.905,100
168,107.92,107.93,107.91,107.92,1184
169,107.915,107.925,107.91,107.92,1666
170,107.91,107.91,107.88,107.89,1600
171,107.92,107.92,107.92,107.92,300
172,107.92,107.92,107.92,107.92,300
173,107.91,107.93,107.91,107.93,1757
174,107.9,107.93,107.9,107.93,1440
175,107.91,107.91,107.91,107.91,200
176,107.89,107.91,107.89,107.905,3000
177,107.92,107.92,107.89,107.8904,1950
179,107.91,107.91,107.9,107.9,900
180,107.9,107.9,107.88,107.9,1322
181,107.88,107.885,107.86,107.885,800
182,107.84,107.885,107.84,107.885,1200
183,107.87,107.87,107.87,107.87,100
185,107.85,107.88,107.84,107.86,1100
186,107.79,107.87,107.74,107.86,4330
187,107.81,107.82,107.79,107.79,2049
188,107.81,107.81,107.79,107.79,200
189,107.8,107.82,107.79,107.81,2600
190,107.79,107.8,107.785,107.8,1400
191,107.77,107.8,107.77,107.8,1105
192,107.765,107.765,107.75,107.75,300
193,107.75,107.75,107.75,107.75,100
194,107.79,107.79,107.765,107.78,2000
195,107.76,107.78,107.76,107.78,300
197,107.77,107.77,107.74,107.76,2000
198,107.69,107.75,107.68,107.74,1500
199,107.6663,107.67,107.6663,107.67,400
200,107.66,107.69,107.66,107.69,400
201,107.61,107.65,107.61,107.65,1000
202,107.595,107.62,107.58,107.6,1100
204,107.59,107.5991,107.58,107.5991,626
205,107.59,107.6,107.58,107.58,1600
206,107.56,107.58,107.55,107.58,2048
207,107.54,107.55,107.54,107.55,1400
208,107.58,107.58,107.55,107.55,1615
209,107.5701,107.62,107.5701,107.6,1061
211,107.62,107.62,107.61,107.61,400
212,107.61,107.63,107.6,107.61,2075
213,107.64,107.64,107.62,107.63,1300
214,107.64,107.64,107.61,107.62,1794
215,107.69,107.7,107.65,107.65,3100
216,107.68,107.69,107.68,107.69,1000
217,107.7,107.7,107.7,107.7,200
218,107.72,107.72,107.7,107.7,900
219,107.725,107.73,107.725,107.73,200
220,107.72,107.74,107.7,107.74,2725
222,107.74,107.74,107.74,107.74,600
223,107.74,107.74,107.74,107.74,300
224,107.77,107.78,107.7414,107.7414,1824
225,107.77,107.79,107.76,107.77,2100
226,107.77,107.77,107.77,107.77,100
227,107.75,107.78,107.75,107.78,600
228,107.71,107.76,107.71,107.75,2700
229,107.69,107.69,107.69,107.69,100
230,107.65,107.685,107.65,107.685,400
231,107.61,107.62,107.59,107.62,900
232,107.62,107.62,107.62,107.62,800
233,107.64,107.64,107.62,107.62,1550
234,107.62,107.649,107.62,107.63,1875
235,107.7096,107.71,107.62,107.62,4654
236,107.63,107.7,107.63,107.7,1300
237,107.69,107.69,107.63,107.63,22805
238,107.665,107.665,107.665,107.665,300
239,107.66,107.68,107.66,107.68,1200
240,107.66,107.66,107.66,107.66,1034
241,107.655,107.68,107.65,107.68,1997
242,107.61,107.64,107.61,107.64,1000
243,107.57,107.57,107.57,107.57,1000
246,107.58,107.58,107.53,107.555,3000
247,107.61,107.63,107.59,107.59,1700
248,107.62,107.62,107.6,107.605,1500
249,107.65,107.65,107.64,107.65,600
250,107.63,107.655,107.63,107.655,2534
251,107.62,107.63,107.605,107.63,2765
252,107.625,107.64,107.625,107.64,500
253,107.58,107.62,107.58,107.62,900
254,107.57,107.59,107.57,107.59,500
255,107.58,107.58,107.53,107.56,500
256,107.56,107.57,107.55,107.55,600
257,107.67,107.68,107.56,107.56,10774
258,107.69,107.7,107.67,107.68,7397
259,107.725,107.7328,107.7,107.7,2715
260,107.725,107.725,107.7,107.7,25200
261,107.7243,107.74,107.72,107.74,1700
262,107.75,107.75,107.75,107.75,700
263,107.79,107.8,107.78,107.78,2000
264,107.77,107.807,107.77,107.807,1339
265,107.75,107.77,107.75,107.76,400
266,107.72,107.7391,107.72,107.72,380
267,107.71,107.76,107.7,107.75,5767
268,107.7,107.7,107.7,107.7,100
269,107.65,107.69,107.65,107.69,3300
270,107.655,107.655,107.655,107.655,100
271,107.64,107.67,107.64,107.67,650
272,107.61,107.63,107.61,107.62,2700
274,107.59,107.61,107.59,107.61,1500
275,107.63,107.64,107.605,107.62,3606
276,107.7,107.7,107.65,107.65,1600
277,107.65,107.68,107.64,107.66,22800
278,107.7,107.7,107.67,107.67,3200
279,107.63,107.69,107.63,107.69,2136
280,107.615,107.62,107.6,107.61,2000
281,107.65,107.65,107.63,107.63,300
282,107.65,107.6524,107.6276,107.6276,20859
283,107.635,107.635,107.635,107.635,300
284,107.62,107.635,107.62,107.635,1100
285,107.57,107.61,107.57,107.6003,3358
286,107.56,107.6,107.56,107.59,2239
287,107.57,107.58,107.57,107.58,300
288,107.58,107.59,107.55,107.55,2000
289,107.59,107.59,107.59,107.59,600
290,107.62,107.62,107.575,107.59,4700
291,107.6,107.63,107.6,107.63,1300
292,107.62,107.62,107.6,107.6,700
293,107.62,107.64,107.62,107.63,1300
294,107.59,107.62,107.59,107.6,2100
295,107.58,107.58,107.58,107.58,100
296,107.66,107.67,107.595,107.595,2200
297,107.62,107.67,107.62,107.67,2600
298,107.64,107.64,107.63,107.63,800
299,107.69,107.69,107.65,107.65,1300
300,107.67,107.695,107.67,107.69,14147
301,107.69,107.71,107.6868,107.69,51264
302,107.69,107.69,107.69,107.69,31000
303,107.72,107.72,107.685,107.685,2100
304,107.78,107.78,107.72,107.72,1800
305,107.82,107.82,107.795,107.8,300
306,107.79,107.79,107.79,107.79,100
307,107.76,107.805,107.76,107.805,5750
308,107.73,107.76,107.73,107.76,700
309,107.69,107.73,107.69,107.73,2000
310,107.69,107.7,107.67,107.7,4801
311,107.71,107.71,107.66,107.68,3100
312,107.7,107.7,107.7,107.7,50000
313,107.78,107.78,107.72,107.72,2746
314,107.81,107.82,107.78,107.78,900
315,107.87,107.87,107.82,107.83,900
316,107.875,107.875,107.875,107.875,200
317,107.89,107.89,107.85,107.86,2800
318,107.96,107.98,107.91,107.91,3239
319,107.96,108,107.94,107.97,1800
321,108,108,107.93,107.95,4035
322,107.95,107.95,107.95,107.95,200
323,107.96,107.96,107.96,107.96,100
324,107.93,107.97,107.92,107.97,2274
325,107.96,107.96,107.93,107.93,1012
326,107.9444,107.9548,107.9444,107.95,633
327,107.9302,107.9424,107.9197,107.9424,2256
328,107.9486,107.9486,107.925,107.93,926
329,107.93,107.95,107.93,107.9414,600
330,107.94,107.94,107.93,107.93,900
331,107.96,107.97,107.95,107.95,1600
332,107.97,108,107.96,107.96,2901
333,107.95,107.96,107.95,107.96,459
334,107.98,108,107.96,107.96,2508
335,107.99,108,107.98,107.9834,833
336,108,108.01,108,108,1500
337,108,108.02,107.98,108,6009
338,108.01,108.01,108.01,108.01,400
339,108.01,108.01,108.01,108.01,400
340,108,108.02,107.99,108.02,1600
341,108.01,108.02,108,108.01,2803
342,108.01,108.01,108,108,1302
343,108.02,108.02,108.02,108.02,805
344,108.03,108.03,108.015,108.03,1100
345,108.04,108.04,108.03,108.03,800
346,108.07,108.07,108.05,108.05,1300
347,108.08,108.08,108.08,108.08,700
348,108.07,108.08,108.07,108.08,2254
349,108.1,108.11,108.08,108.08,3121
350,108.08,108.1,108.08,108.09,800
351,108.1,108.1,108.1,108.1,730
352,108.08,108.11,108.08,108.11,2125
353,108.095,108.095,108.095,108.095,600
354,108.1,108.1,108.08,108.08,3730
355,108.1,108.1,108.08,108.09,2688
356,108.095,108.1,108.08,108.0803,3579
357,108.08,108.1,108.08,108.08,1400
358,108.14,108.14,108.08,108.08,2800
359,108.16,108.16,108.13,108.14,2000
360,108.16,108.16,108.16,108.16,700
361,108.16,108.17,108.14,108.16,1600
362,108.19,108.19,108.17,108.17,1721
364,108.2,108.2,108.18,108.2,2928
365,108.17,108.2,108.17,108.2,2100
366,108.165,108.19,108.16,108.19,3524
367,108.15,108.17,108.15,108.16,1441
368,108.175,108.175,108.155,108.155,3535
369,108.12,108.16,108.12,108.16,3716
370,108.09,108.1229,108.09,108.1229,5902
371,108.06,108.1,108.06,108.09,3016
372,108.03,108.0403,108.03,108.04,2067
373,108.04,108.04,108.01,108.03,2712
374,108.03,108.04,108.02,108.04,3384
375,108.03,108.04,108.025,108.03,5063
376,108.12,108.12,108.02,108.03,7242
377,108.06,108.12,108.06,108.12,5918
378,108.05,108.07,108.05,108.06,2713
379,108.03,108.05,108.03,108.05,2500
380,108.03,108.05,108.03,108.04,1300
381,107.98,108.04,107.98,108.04,5299
382,108.01,108.02,107.98,107.99,10014
383,107.97,108.01,107.97,108.01,6657
384,107.94,107.97,107.93,107.97,2783
385,107.91,107.93,107.89,107.93,9005
386,107.88,107.915,107.87,107.915,8779
387,107.85,107.87,107.85,107.87,8536
388,107.87,107.88,107.85,107.85,8152
389,107.8,107.87,107.79,107.85,21603
390,107.84,107.86,107.8,107.8,31574
