EOG,EOG Resources,Energy,3,Oil & Gas Exploration & Production,53016069342,3137321
a1495546200,93.12,93.12,93.12,93.12,24209
1,92.94,93.2,92.93,93.2,3050
2,92.92,92.97,92.81,92.97,2341
3,93.08,93.08,92.8,92.8,1732
4,93.025,93.185,93.025,93.09,4925
5,92.92,93.02,92.92,92.95,1260
6,92.92,93.02,92.85,92.85,5800
7,92.905,93.03,92.8,92.96,18779
8,92.915,92.93,92.82,92.9,15158
9,92.93,93.08,92.915,92.915,6425
10,92.98,93.02,92.96,92.96,5400
11,93.05,93.09,92.985,92.985,14376
12,93.07,93.07,92.94,92.98,9000
13,93.2,93.3,93.07,93.07,16864
14,92.97,93.215,92.95,93.215,4200
15,92.9,93.11,92.9,93.04,1500
16,93,93.05,92.895,92.895,1800
17,93.01,93.07,93,93.065,500
18,93.04,93.04,93.02,93.03,1175
19,93.21,93.27,93.06,93.11,3400
20,93.165,93.18,93.06,93.135,7073
21,93.22,93.22,93.165,93.18,500
22,93.01,93.21,93.01,93.21,2200
23,93.09,93.125,93.01,93.07,2990
24,92.95,93.115,92.95,93.03,4750
25,92.95,93.01,92.89,93,1100
26,92.84,93.03,92.81,92.94,6877
27,92.64,92.855,92.62,92.83,4062
28,92.66,92.72,92.63,92.7,6672
29,92.585,92.69,92.56,92.66,11400
30,92.61,92.62,92.56,92.57,6750
31,92.57,92.63,92.55,92.59,3225
32,92.615,92.69,92.54,92.59,12787
33,92.625,92.64,92.6,92.6004,825
34,92.49,92.625,92.45,92.6,11976
35,92.47,92.48,92.43,92.46,3723
36,92.45,92.52,92.45,92.48,6712
37,92.4,92.4428,92.37,92.4428,4345
38,92.25,92.42,92.24,92.4,8000
39,92.24,92.31,92.2,92.25,9386
40,92.27,92.2775,92.2,92.23,6792
41,92.33,92.36,92.25,92.255,6600
42,92.277,92.33,92.27,92.3,3105
43,92.165,92.295,92.13,92.29,15078
44,92.08,92.23,92.08,92.18,8902
45,92.03,92.1,92.03,92.05,10029
46,92.04,92.08,92.01,92.04,13290
47,92.17,92.19,92.045,92.045,18104
48,92.07,92.165,92.06,92.16,18098
49,92.19,92.19,92.07,92.08,21801
50,92.265,92.29,92.18,92.185,6400
51,92.3,92.33,92.06,92.265,18181
52,92.31,92.325,92.26,92.325,5600
53,92.21,92.31,92.2,92.31,3950
54,92.15,92.18,92.11,92.18,1002
55,92.1375,92.18,92.135,92.15,5673
56,92.14,92.17,92.11,92.16,2900
57,91.985,92.14,91.97,92.14,11362
58,92.16,92.16,91.99,91.99,5943
59,92.26,92.29,92.145,92.16,7970
60,92.2,92.29,92.2,92.24,2000
61,92.22,92.24,92.1573,92.205,8816
62,92.21,92.21,92.19,92.21,8132
63,92.2073,92.23,92.18,92.21,9137
64,92.1867,92.21,92.16,92.2,2999
65,92.18,92.1819,92.18,92.1819,400
66,92.14,92.16,92.13,92.13,2500
67,92.14,92.17,92.14,92.14,1950
68,92.22,92.23,92.14,92.145,8661
69,92.18,92.23,92.17,92.22,5666
70,92.19,92.2,92.1601,92.2,1195
71,92.1301,92.19,92.1301,92.19,1198
72,92.1375,92.18,92.1334,92.1649,2650
73,92.1,92.16,92.1,92.135,4793
74,92.1,92.1,92.08,92.09,1700
75,92.055,92.09,92.05,92.09,1475
76,92.08,92.09,92.05,92.07,2900
77,92.08,92.1,92.055,92.09,3462
78,92.1,92.1,92.04,92.08,3600
79,92.13,92.14,92.09,92.1,3800
80,92.14,92.19,92.135,92.14,20454
81,92.21,92.22,92.145,92.145,7206
82,92.2,92.23,92.19,92.22,16697
83,92.24,92.25,92.17,92.19,4775
84,92.27,92.27,92.21,92.23,1950
85,92.31,92.32,92.27,92.27,1400
86,92.37,92.38,92.33,92.35,2311
87,92.33,92.38,92.33,92.37,9750
88,92.43,92.46,92.35,92.37,9387
89,92.39,92.43,92.35,92.43,3800
90,92.3,92.375,92.3,92.36,4200
91,92.33,92.35,92.31,92.32,2304
92,92.39,92.43,92.33,92.33,4900
93,92.41,92.44,92.39,92.39,2428
94,92.47,92.5,92.435,92.44,10100
95,92.37,92.49,92.37,92.49,6741
96,92.35,92.41,92.35,92.38,3696
97,92.405,92.41,92.31,92.35,4702
98,92.475,92.49,92.39,92.42,2775
99,92.46,92.55,92.46,92.47,5800
100,92.45,92.52,92.45,92.46,4161
101,92.43,92.46,92.41,92.46,3920
102,92.43,92.46,92.395,92.46,5399
103,92.37,92.43,92.35,92.4,8651
104,92.44,92.47,92.37,92.4,1800
105,92.53,92.54,92.45,92.47,3673
106,92.48,92.52,92.48,92.52,11984
107,92.49,92.51,92.48,92.48,1700
108,92.46,92.52,92.43,92.51,7387
109,92.5025,92.51,92.48,92.485,3200
110,92.55,92.59,92.4936,92.4936,11307
111,92.68,92.68,92.55,92.55,4900
112,92.72,92.74,92.7,92.7,1635
113,92.76,92.79,92.73,92.75,5375
114,92.79,92.87,92.76,92.76,4476
115,92.765,92.78,92.75,92.775,1237
116,92.84,92.89,92.77,92.77,26436
117,92.875,92.93,92.82,92.84,16550
118,92.9,92.92,92.85,92.88,11307
119,92.85,92.9268,92.85,92.91,11401
120,92.75,92.8423,92.73,92.8423,5100
121,92.74,92.76,92.72,92.75,1036
122,92.64,92.72,92.64,92.72,3493
123,92.695,92.71,92.65,92.67,2935
124,92.73,92.76,92.67,92.729,9336
125,92.7,92.76,92.7,92.72,1205
126,92.7,92.7,92.7,92.7,200
127,92.79,92.79,92.7,92.74,5010
128,92.72,92.81,92.72,92.81,2875
129,92.71,92.73,92.2524,92.72,3245
130,92.69,92.7265,92.69,92.7265,963
131,92.76,92.81,92.72,92.72,7561
132,92.7,92.77,92.7,92.74,2600
133,92.66,92.7484,92.64,92.7484,3097
134,92.58,92.68,92.58,92.65,1529
135,92.63,92.63,92.58,92.58,1065
136,92.64,92.66,92.5801,92.62,2618
137,92.7,92.72,92.6784,92.68,1775
138,92.6995,92.72,92.67,92.72,2778
139,92.64,92.69,92.64,92.66,1400
140,92.64,92.68,92.61,92.67,6240
141,92.69,92.74,92.64,92.64,5300
142,92.6605,92.7295,92.66,92.7295,2138
143,92.74,92.74,92.66,92.68,1300
144,92.7,92.75,92.7,92.75,1908
145,92.72,92.78,92.72,92.75,2100
146,92.75,92.78,92.73,92.74,3824
147,92.78,92.81,92.75,92.77,2500
148,92.76,92.78,92.74,92.78,1442
149,92.75,92.75,92.74,92.74,400
150,92.7,92.72,92.68,92.72,3400
151,92.69,92.72,92.66,92.67,1498
152,92.67,92.75,92.67,92.73,6643
153,92.64,92.69,92.64,92.68,2600
154,92.64,92.66,92.63,92.64,1800
155,92.66,92.7,92.66,92.66,2057
156,92.69,92.7,92.64,92.64,1640
157,92.63,92.72,92.63,92.71,3004
158,92.7,92.7,92.67,92.67,800
159,92.7514,92.7514,92.71,92.71,8941
160,92.75,92.79,92.72,92.732,6104
161,92.75,92.77,92.75,92.77,400
162,92.75,92.77,92.7493,92.77,3100
163,92.76,92.83,92.74,92.76,5284
164,92.7505,92.77,92.73,92.77,1860
165,92.75,92.77,92.75,92.76,1300
166,92.75,92.7805,92.75,92.76,1000
167,92.73,92.79,92.73,92.77,3608
168,92.7,92.71,92.7,92.71,300
169,92.65,92.72,92.65,92.7075,3400
170,92.67,92.68,92.67,92.67,500
171,92.69,92.69,92.69,92.69,300
172,92.67,92.71,92.67,92.71,200
173,92.68,92.68,92.6633,92.67,2326
174,92.55,92.66,92.55,92.66,2500
175,92.59,92.59,92.54,92.54,600
176,92.61,92.61,92.61,92.61,100
177,92.57,92.62,92.57,92.59,3400
178,92.5601,92.57,92.54,92.56,2182
179,92.54,92.59,92.54,92.59,1207
180,92.53,92.54,92.52,92.53,700
181,92.51,92.54,92.5,92.51,1465
182,92.5,92.55,92.5,92.5,2650
183,92.43,92.52,92.43,92.5042,3884
184,92.38,92.47,92.38,92.46,6695
186,92.39,92.39,92.37,92.38,1100
187,92.3946,92.42,92.3946,92.41,965
188,92.43,92.43,92.4175,92.42,1500
189,92.37,92.44,92.37,92.42,2490
190,92.37,92.39,92.37,92.38,4600
191,92.3802,92.3921,92.37,92.37,1967
192,92.4101,92.4101,92.385,92.385,913
193,92.42,92.45,92.4148,92.43,3895
194,92.34,92.41,92.34,92.41,2100
195,92.29,92.37,92.29,92.36,1865
196,92.29,92.313,92.26,92.31,2309
197,92.31,92.33,92.29,92.31,3103
198,92.25,92.31,92.25,92.31,3200
199,92.24,92.25,92.23,92.24,1475
200,92.23,92.24,92.17,92.23,4132
201,92.19,92.22,92.16,92.2,2300
202,92.2,92.24,92.2,92.21,925
203,92.25,92.29,92.2144,92.2144,5731
204,92.285,92.31,92.25,92.27,1847
205,92.32,92.32,92.28,92.29,1100
206,92.34,92.34,92.31,92.33,1900
207,92.3408,92.375,92.33,92.375,4598
208,92.37,92.4,92.34,92.34,1700
209,92.42,92.43,92.38,92.4,800
210,92.385,92.42,92.38,92.4,1448
211,92.43,92.44,92.36,92.36,3000
212,92.43,92.43,92.4,92.43,1800
213,92.45,92.5,92.45,92.45,1575
214,92.37,92.44,92.37,92.42,3400
215,92.36,92.37,92.36,92.37,700
216,92.35,92.36,92.32,92.33,2000
217,92.4,92.45,92.4,92.4,1190
218,92.36,92.42,92.36,92.381,2900
219,92.42,92.42,92.36,92.36,700
220,92.4,92.43,92.38,92.43,1800
221,92.438,92.45,92.39,92.39,1399
222,92.42,92.45,92.42,92.45,400
223,92.44,92.46,92.44,92.45,900
224,92.41,92.43,92.38,92.43,1700
225,92.43,92.43,92.43,92.43,100
226,92.46,92.46,92.43,92.43,300
227,92.48,92.48,92.44,92.44,26945
228,92.51,92.56,92.45,92.48,13227
230,92.51,92.51,92.51,92.51,600
231,92.5,92.53,92.48,92.52,7700
232,92.54,92.57,92.5,92.5,2971
233,92.559,92.559,92.559,92.559,600
234,92.57,92.57,92.54,92.56,965
235,92.53,92.58,92.53,92.58,1200
236,92.555,92.56,92.53,92.53,1006
237,92.545,92.569,92.54,92.5625,600
238,92.47,92.5487,92.47,92.5487,4683
239,92.5,92.5,92.45,92.46,2750
240,92.5,92.52,92.48,92.51,1502
241,92.47,92.48,92.47,92.48,300
242,92.47,92.47,92.47,92.47,900
243,92.434,92.455,92.434,92.44,800
244,92.48,92.48,92.44,92.44,705
245,92.44,92.4548,92.43,92.4548,1001
246,92.52,92.52,92.4384,92.4384,2020
247,92.49,92.52,92.49,92.51,2300
248,92.4801,92.49,92.48,92.49,1267
249,92.44,92.5,92.44,92.5,2626
250,92.3979,92.44,92.3979,92.44,650
251,92.38,92.4,92.37,92.37,1600
252,92.39,92.43,92.39,92.39,1439
253,92.37,92.38,92.35,92.37,3227
254,92.39,92.39,92.3601,92.37,900
255,92.42,92.42,92.38,92.384,600
256,92.4,92.43,92.4,92.42,938
257,92.48,92.48,92.42,92.42,1628
258,92.5,92.5,92.4772,92.4772,950
259,92.46,92.47,92.44,92.47,1510
260,92.43,92.47,92.43,92.45,1597
261,92.46,92.46,92.4201,92.4201,800
262,92.5,92.5,92.44,92.45,1505
263,92.47,92.5,92.46,92.5,1905
264,92.461,92.49,92.461,92.47,926
265,92.48,92.4801,92.47,92.47,3130
266,92.52,92.52,92.48,92.48,1880
267,92.46,92.52,92.46,92.52,1805
268,92.5,92.52,92.46,92.46,2300
269,92.49,92.515,92.47,92.5,1433
270,92.47,92.49,92.4489,92.46,2359
271,92.56,92.56,92.49,92.5,2200
272,92.59,92.6,92.57,92.57,1106
273,92.6193,92.62,92.57,92.57,2151
274,92.66,92.66,92.63,92.63,300
275,92.66,92.69,92.66,92.66,2249
276,92.6225,92.7,92.62,92.68,4253
277,92.6,92.615,92.58,92.61,3700
278,92.6042,92.61,92.6,92.6,3334
279,92.61,92.61,92.595,92.595,200
280,92.62,92.64,92.62,92.62,7015
281,92.5999,92.615,92.5701,92.615,1465
282,92.63,92.63,92.6,92.6,4500
283,92.6089,92.62,92.6089,92.61,824
284,92.65,92.655,92.6,92.6,12860
285,92.61,92.66,92.6,92.65,10148
286,92.63,92.64,92.6053,92.61,1340
287,92.64,92.64,92.63,92.63,3028
288,92.6241,92.65,92.62,92.63,4418
289,92.6101,92.63,92.61,92.63,1005
290,92.62,92.62,92.6,92.61,6310
291,92.61,92.65,92.6,92.61,8805
292,92.63,92.64,92.605,92.64,7000
293,92.62,92.64,92.61,92.61,27329
294,92.625,92.625,92.62,92.62,500
295,92.655,92.67,92.625,92.625,10057
296,92.63,92.66,92.62,92.655,4000
297,92.67,92.67,92.62,92.635,2500
298,92.68,92.68,92.66,92.6636,3542
299,92.66,92.69,92.66,92.69,1500
300,92.66,92.66,92.655,92.66,900
301,92.54,92.64,92.54,92.64,5403
302,92.54,92.57,92.54,92.54,2729
303,92.545,92.56,92.54,92.56,1367
304,92.57,92.57,92.53,92.54,2200
305,92.579,92.579,92.56,92.57,1413
306,92.53,92.56,92.53,92.56,1764
307,92.57,92.57,92.54,92.54,1479
308,92.535,92.55,92.53,92.55,1900
309,92.52,92.55,92.51,92.532,1100
310,92.55,92.55,92.51,92.5135,3388
311,92.58,92.58,92.55,92.56,985
312,92.506,92.58,92.49,92.58,4000
313,92.5,92.5156,92.49,92.49,750
314,92.56,92.56,92.5152,92.5152,3321
315,92.61,92.62,92.58,92.58,3300
316,92.65,92.65,92.62,92.62,2064
317,92.595,92.66,92.59,92.65,8000
318,92.59,92.63,92.59,92.6,4000
319,92.62,92.63,92.6,92.62,1500
320,92.6,92.65,92.6,92.6,4255
321,92.602,92.62,92.6,92.62,1644
322,92.65,92.65,92.61,92.61,1800
323,92.65,92.68,92.64,92.645,7557
324,92.65,92.66,92.63,92.66,1100
325,92.6525,92.66,92.64,92.65,5700
326,92.6,92.655,92.6,92.65,4756
327,92.61,92.63,92.6,92.62,2858
328,92.59,92.62,92.5824,92.61,2003
329,92.58,92.61,92.58,92.58,4467
330,92.57,92.59,92.55,92.56,2400
331,92.58,92.61,92.57,92.57,1600
332,92.59,92.6,92.59,92.59,2000
333,92.605,92.61,92.58,92.59,1400
334,92.64,92.64,92.61,92.61,5453
335,92.65,92.65,92.64,92.64,2500
336,92.56,92.65,92.56,92.65,10704
337,92.615,92.615,92.54,92.54,4000
338,92.57,92.62,92.57,92.62,4099
339,92.59,92.59,92.54,92.56,3050
340,92.65,92.66,92.58,92.58,7322
341,92.66,92.67,92.64,92.66,5510
342,92.67,92.67,92.63,92.655,3251
343,92.66,92.68,92.65,92.67,8645
344,92.675,92.68,92.66,92.66,6071
345,92.75,92.75,92.67,92.675,6900
346,92.72,92.8,92.7045,92.75,38609
347,92.71,92.78,92.71,92.76,13000
348,92.71,92.72,92.69,92.7,1100
349,92.7,92.7063,92.68,92.7063,2500
350,92.66,92.6839,92.66,92.68,2000
351,92.68,92.68,92.62,92.65,9381
352,92.66,92.69,92.63,92.68,5000
353,92.63,92.66,92.63,92.66,2700
354,92.65,92.65,92.62,92.63,3340
355,92.69,92.69,92.64,92.66,2305
356,92.68,92.685,92.665,92.68,4731
357,92.68,92.69,92.675,92.68,3533
358,92.67,92.69,92.67,92.685,5844
359,92.64,92.67,92.64,92.67,2900
360,92.61,92.65,92.61,92.65,3576
361,92.53,92.6,92.5,92.6,11666
362,92.625,92.625,92.54,92.545,6792
363,92.63,92.66,92.63,92.63,8066
364,92.61,92.62,92.59,92.62,3520
365,92.59,92.64,92.59,92.61,7810
366,92.58,92.62,92.57,92.6,4244
367,92.51,92.57,92.51,92.565,3766
368,92.4645,92.53,92.4645,92.53,3567
369,92.55,92.55,92.46,92.475,6030
370,92.5599,92.57,92.5599,92.56,4263
371,92.515,92.55,92.5,92.55,5709
372,92.45,92.51,92.45,92.504,4234
373,92.43,92.45,92.43,92.45,1800
374,92.56,92.56,92.43,92.43,10211
375,92.52,92.56,92.52,92.56,6601
376,92.51,92.52,92.49,92.51,8816
377,92.58,92.585,92.5,92.51,9672
378,92.57,92.58,92.55,92.57,8548
379,92.57,92.58,92.56,92.57,3100
380,92.495,92.57,92.48,92.56,8551
381,92.52,92.53,92.495,92.495,6206
382,92.55,92.58,92.525,92.53,6675
383,92.56,92.57,92.56,92.56,6123
384,92.545,92.57,92.54,92.57,11023
385,92.51,92.53,92.51,92.53,7876
386,92.48,92.52,92.48,92.52,7569
387,92.52,92.52,92.48,92.49,10050
388,92.47,92.52,92.47,92.52,8969
389,92.47,92.49,92.46,92.49,17213
390,92.53,92.55,92.46,92.46,49203
