PPG,PPG Industries,Materials,8,Specialty Chemicals,28047533069,1209186
a1496323860,106.39,107,106.39,106.49,14024
1,106.95,107,106.48,106.48,6746
2,106.8,106.835,106.8,106.835,30200
3,106.86,106.87,106.71,106.73,4150
4,106.78,106.88,106.76,106.815,2400
5,106.74,106.85,106.74,106.77,5200
6,106.8,106.83,106.69,106.71,2200
7,106.86,106.96,106.81,106.81,3600
8,106.89,107,106.81,106.86,4912
9,107.02,107.105,106.91,106.97,9053
10,107.1601,107.21,107,107.01,4865
11,107.3,107.31,107.1601,107.19,3300
12,107.13,107.31,107.12,107.31,10400
13,107.4,107.4,107.1401,107.15,7377
14,107.54,107.54,107.325,107.41,21489
15,107.63,107.64,107.5,107.58,46988
16,107.9999,108,107.67,107.67,3944
17,108.335,108.345,107.94,107.965,4900
18,108.595,108.649,108.4,108.4,26913
19,108.98,109,108.61,108.61,24981
20,109.18,109.18,108.97,108.97,16402
21,109.33,109.42,109.23,109.23,2800
22,109.49,109.49,109.17,109.485,7737
23,109.795,109.795,109.37,109.49,12711
24,109.88,109.905,109.65,109.8,8911
25,110.135,110.29,109.895,109.895,35061
26,110.3,110.32,109.96,110.11,17763
27,110.06,110.24,110,110.2,6142
28,110.02,110.19,109.9,110.055,14847
29,110.47,110.47,109.6901,110,24403
30,109.785,110.47,109.7701,110.47,13088
31,109.58,109.8,109.43,109.8,16946
32,109.5,109.66,109.5,109.61,15415
33,109.31,109.55,109.295,109.49,12725
34,109.67,109.6799,109.2,109.27,5300
35,109.3,109.67,109.28,109.67,3700
36,109.5,109.5,109.32,109.3675,6314
37,109.5,109.52,109.25,109.52,9287
38,109.48,109.64,109.48,109.52,6539
39,109.55,109.55,109.4414,109.495,4959
40,109.48,109.5203,109.39,109.5203,6045
41,109.4675,109.52,109.38,109.48,17696
42,109.45,109.5,109.42,109.46,8300
43,109.39,109.485,109.18,109.46,33514
44,109.5,109.5,109.32,109.39,6740
45,109.55,109.58,109.485,109.485,2272
46,109.61,109.64,109.48,109.55,5710
47,109.48,109.66,109.48,109.66,2500
48,109.34,109.44,109.34,109.4335,1430
49,109.28,109.36,109.15,109.33,7050
50,109.33,109.3799,109.3,109.3799,3737
51,109.47,109.55,109.37,109.37,8641
52,109.5,109.5,109.36,109.5,10476
53,109.5,109.5,109.4132,109.46,20450
54,109.355,109.49,109.35,109.485,9069
55,109.29,109.35,109.29,109.35,14686
56,109.2,109.29,109.2,109.29,1900
57,109.033,109.2175,108.93,109.2,24858
58,108.97,109.0307,108.94,109.03,7802
59,109,109,108.69,108.96,10068
60,108.885,109.02,108.86,108.985,7748
61,108.8,108.86,108.8,108.86,4452
62,108.77,108.83,108.77,108.8,7914
63,108.7777,108.8,108.76,108.8,2450
64,108.73,108.83,108.7,108.81,6700
65,108.63,108.7225,108.51,108.71,11100
66,108.55,108.63,108.55,108.63,2500
67,108.56,108.56,108.531,108.55,1460
68,108.63,108.64,108.55,108.56,8216
69,108.56,108.73,108.5401,108.66,15500
70,108.31,108.59,108.31,108.59,4209
71,108.5,108.58,108.39,108.39,3250
72,108.475,108.52,108.475,108.52,400
73,108.46,108.57,108.46,108.47,36450
74,108.2601,108.44,108.2601,108.44,4590
75,107.9,108.32,107.79,108.26,19793
76,107.94,108.21,107.94,108.04,11098
77,107.92,108.03,107.89,107.9,5987
78,108.07,108.1,107.91,107.91,6400
79,108.095,108.14,108.07,108.075,6400
80,108.11,108.12,108.09,108.11,10641
81,108.05,108.12,108.02,108.115,9381
82,108.31,108.31,108.03,108.09,6400
83,108.46,108.5,108.28,108.28,4274
84,108.24,108.47,108.24,108.465,8894
85,108.23,108.29,108.23,108.24,4612
86,108.34,108.34,108.2555,108.26,3590
87,108.43,108.43,108.35,108.35,800
88,108.4,108.46,108.39,108.46,5000
89,108.395,108.44,108.38,108.42,5700
90,108.39,108.48,108.38,108.38,8395
91,108.475,108.5,108.39,108.4,4800
92,108.42,108.49,108.39,108.49,4691
93,108.4,108.42,108.36,108.42,5440
94,108.2,108.42,108.18,108.42,6260
95,108.25,108.26,108.2,108.25,2617
96,108.23,108.26,108.23,108.25,775
97,108.43,108.43,108.28,108.28,1700
98,108.37,108.42,108.36,108.42,1500
99,108.4,108.41,108.36,108.38,800
100,108.36,108.43,108.36,108.395,1515
101,108.384,108.384,108.3697,108.3697,584
102,108.33,108.37,108.33,108.37,8583
103,108.35,108.36,108.34,108.34,2105
104,108.29,108.34,108.29,108.34,1925
105,108.27,108.27,108.27,108.27,300
106,108.31,108.4,108.3,108.3,9752
107,108.29,108.29,108.29,108.29,100
108,108.27,108.35,108.27,108.3,5058
110,108.3,108.3,108.25,108.26,935
111,108.34,108.35,108.3,108.3,1658
112,108.3,108.34,108.3,108.33,1974
113,108.21,108.31,108.21,108.29,4300
114,108.225,108.26,108.22,108.24,6213
115,108.17,108.225,108.17,108.225,2950
116,108.27,108.27,108.15,108.15,1786
117,108.15,108.24,108.15,108.24,4135
118,108.24,108.24,108.1501,108.1501,2552
119,108.32,108.32,108.265,108.2749,2290
120,108.315,108.35,108.3,108.33,2500
121,108.24,108.315,108.24,108.315,1900
122,108.33,108.33,108.205,108.205,13300
123,108.32,108.325,108.32,108.325,10900
124,108.265,108.31,108.265,108.31,1950
125,108.34,108.34,108.24,108.24,2641
126,108.355,108.4,108.34,108.35,19105
127,108.4,108.4,108.33,108.33,3852
128,108.46,108.52,108.41,108.41,2405
129,108.56,108.56,108.46,108.46,500
130,108.64,108.64,108.55,108.55,900
131,108.71,108.71,108.69,108.69,300
132,108.73,108.73,108.65,108.72,2900
133,108.75,108.75,108.73,108.73,400
134,108.91,108.91,108.69,108.74,8044
135,108.723,108.885,108.7,108.885,3136
136,108.84,108.86,108.75,108.75,3465
137,108.945,108.95,108.87,108.87,1700
138,108.95,108.965,108.91,108.945,4234
139,108.96,109,108.96,108.97,3784
140,109,109,108.96,109,5857
141,109.1027,109.12,109,109,9794
142,109.1299,109.1299,109.1,109.12,1550
143,108.995,109.11,108.91,109.11,9053
144,109.08,109.08,109,109,300
145,109.12,109.12,109.11,109.12,500
146,109,109.15,108.99,109.13,6200
147,109,109.03,108.96,109.03,1640
148,109.12,109.12,109,109,600
149,109,109.065,109,109.04,1100
150,109.05,109.05,108.99,108.99,724
151,109.01,109.08,109.01,109.02,1500
152,109,109.01,108.98,108.99,1600
153,109.03,109.03,108.98,108.99,1229
154,108.9862,109.03,108.9862,109.03,2500
155,108.97,108.9983,108.97,108.995,1230
156,109.04,109.04,109.01,109.02,2100
157,109,109.06,109,109.03,1905
158,109.04,109.04,108.99,109,900
159,109.1,109.1,109.01,109.01,2700
160,109.14,109.14,109.09,109.11,600
161,109.0899,109.15,109.04,109.15,3564
162,109.16,109.17,109.02,109.08,3100
163,109.17,109.23,109.17,109.17,4205
164,109.18,109.185,109.14,109.185,2600
165,109.36,109.38,109.21,109.21,5600
166,109.42,109.46,109.314,109.314,4328
167,109.45,109.52,109.43,109.43,9530
168,109.54,109.58,109.46,109.47,2500
169,109.5,109.5682,109.49,109.54,4914
170,109.38,109.5,109.35,109.5,2932
171,109.38,109.42,109.38,109.39,9974
172,109.45,109.45,109.38,109.38,1701
173,109.525,109.525,109.46,109.46,7200
174,109.44,109.55,109.44,109.525,3201
175,109.39,109.44,109.39,109.44,1000
176,109.45,109.46,109.41,109.43,2300
177,109.47,109.5,109.45,109.48,1000
178,109.39,109.45,109.39,109.45,1200
179,109.4,109.41,109.36,109.38,3725
180,109.32,109.38,109.32,109.38,2271
181,109.36,109.36,109.32,109.34,1200
182,109.36,109.36,109.36,109.36,873
183,109.32,109.36,109.32,109.36,2900
184,109.38,109.38,109.26,109.3,3903
185,109.36,109.39,109.36,109.39,1200
186,109.34,109.35,109.34,109.35,500
187,109.36,109.4,109.345,109.35,3685
188,109.37,109.37,109.35,109.35,305
189,109.33,109.345,109.32,109.345,1600
190,109.4,109.4,109.34,109.34,2582
191,109.33,109.39,109.33,109.39,3901
192,109.3299,109.3299,109.3,109.31,325
193,109.4174,109.42,109.32,109.33,2400
194,109.37,109.42,109.37,109.42,2190
195,109.43,109.43,109.37,109.37,1979
196,109.47,109.48,109.4338,109.435,1001
197,109.52,109.52,109.46,109.5,700
198,109.54,109.54,109.5,109.5,1800
199,109.46,109.56,109.46,109.51,4703
200,109.4601,109.4601,109.4601,109.4601,100
201,109.57,109.57,109.46,109.48,2403
202,109.54,109.56,109.51,109.56,3700
203,109.56,109.56,109.545,109.55,600
204,109.57,109.6,109.52,109.575,4288
205,109.55,109.6,109.55,109.6,4982
206,109.57,109.57,109.57,109.57,100
207,109.54,109.56,109.5,109.54,2500
208,109.43,109.53,109.43,109.53,1200
209,109.42,109.42,109.3701,109.38,675
210,109.445,109.46,109.42,109.42,1694
211,109.43,109.47,109.4,109.445,3836
212,109.405,109.43,109.38,109.38,300
213,109.271,109.395,109.271,109.395,3166
214,109.3,109.3,109.23,109.27,1230
215,109.37,109.4,109.28,109.32,2100
216,109.42,109.44,109.36,109.36,1900
217,109.45,109.45,109.42,109.42,1800
218,109.49,109.49,109.4,109.44,2930
219,109.5,109.5,109.45,109.48,3300
220,109.58,109.61,109.47,109.52,3100
221,109.59,109.59,109.53,109.58,2900
222,109.6,109.6,109.57,109.58,1004
223,109.68,109.7,109.59,109.605,2580
224,109.73,109.74,109.67,109.7,2060
225,109.69,109.71,109.658,109.658,600
226,109.7,109.75,109.65,109.69,3500
227,109.735,109.77,109.71,109.75,900
228,109.71,109.77,109.71,109.76,700
229,109.62,109.74,109.62,109.73,8700
230,109.8,109.83,109.64,109.64,9919
231,109.7,109.78,109.67,109.78,2900
232,109.68,109.68,109.675,109.675,1100
233,109.62,109.66,109.62,109.65,1530
234,109.58,109.62,109.58,109.62,2200
235,109.655,109.655,109.64,109.64,500
236,109.69,109.69,109.655,109.655,2200
237,109.55,109.67,109.55,109.67,4100
238,109.47,109.51,109.47,109.51,1668
239,109.4,109.46,109.4,109.46,1030
240,109.405,109.43,109.39,109.41,1100
241,109.46,109.46,109.4,109.43,1908
242,109.49,109.49,109.49,109.49,530
243,109.49,109.53,109.46,109.51,1700
244,109.49,109.52,109.44,109.52,2235
245,109.4127,109.47,109.4127,109.47,2372
246,109.38,109.41,109.38,109.41,1000
247,109.4,109.4,109.3695,109.3695,1300
248,109.39,109.39,109.39,109.39,300
250,109.42,109.45,109.4,109.4,1605
251,109.48,109.48,109.44,109.44,800
253,109.53,109.53,109.51,109.51,504
254,109.58,109.6,109.54,109.54,900
255,109.56,109.6,109.56,109.569,2859
256,109.56,109.56,109.55,109.56,700
257,109.535,109.535,109.535,109.535,300
258,109.51,109.56,109.51,109.535,900
259,109.7,109.73,109.53,109.53,10660
260,109.735,109.74,109.67,109.71,5722
261,109.74,109.78,109.74,109.755,400
262,109.76,109.78,109.73,109.78,2100
263,109.74,109.81,109.74,109.79,2500
264,109.69,109.73,109.69,109.73,2000
265,109.72,109.73,109.68,109.68,1313
266,109.69,109.735,109.67,109.735,4376
267,109.69,109.69,109.68,109.68,300
268,109.71,109.71,109.67,109.68,1342
269,109.72,109.73,109.7,109.71,1799
270,109.71,109.75,109.71,109.72,3150
271,109.74,109.75,109.73,109.73,1200
272,109.74,109.76,109.71,109.73,1700
273,109.73,109.75,109.73,109.74,1300
274,109.72,109.73,109.7,109.73,1100
275,109.7,109.73,109.7,109.71,2300
276,109.6,109.69,109.6,109.69,2381
277,109.64,109.66,109.605,109.63,1721
278,109.5862,109.64,109.5862,109.64,947
279,109.64,109.64,109.62,109.62,500
280,109.66,109.7,109.6001,109.6339,3022
281,109.7,109.7,109.7,109.7,100
282,109.68,109.71,109.68,109.71,1242
283,109.66,109.71,109.66,109.7,500
284,109.58,109.59,109.56,109.59,300
285,109.55,109.56,109.53,109.56,1132
286,109.59,109.59,109.59,109.59,100
287,109.65,109.65,109.62,109.62,600
288,109.55,109.65,109.55,109.65,601
290,109.6,109.6,109.57,109.57,404
291,109.56,109.58,109.56,109.58,400
294,109.44,109.48,109.42,109.48,400
