EOG,EOG Resources,Energy,3,Oil & Gas Exploration & Production,51933644482,3239144
a149944500077,90.8850,90.9700,90.8800,90.9500,18076
378,90.9550,90.9800,90.9500,90.9750,16163
379,90.9750,90.9900,90.9550,90.9700,18988
380,90.9700,91.0000,90.9500,90.9900,20362
381,91.0000,91.0300,90.9600,90.9700,27786
382,90.9700,90.9700,90.9000,90.9500,26567
383,90.9500,90.9500,90.8900,90.9000,15941
384,90.9100,90.9600,90.9100,90.9400,20120
385,90.9300,90.9400,90.8900,90.8900,27555
386,90.8900,90.8900,90.8600,90.8900,34261
387,90.9000,90.9300,90.9000,90.9300,17150
388,90.9300,90.9750,90.9200,90.9400,28537
389,90.9400,90.9600,90.9400,90.9400,30425
390,90.9300,90.9300,90.8300,90.8400,70703
0,90.2200,90.2200,90.1600,90.1600,21605
1,90.3000,90.3400,90.2600,90.2600,1500
2,90.2397,90.4200,90.2100,90.4200,1188
3,90.4604,90.7200,90.4604,90.7200,2167
4,90.6100,90.6600,90.5500,90.6600,999
5,90.7025,90.7400,90.4300,90.5400,2356
6,90.6399,90.7100,90.6300,90.6300,1807
7,90.5800,90.5800,90.5045,90.5045,940
8,90.5085,90.5100,90.5085,90.5100,500
9,90.4723,90.6500,90.4100,90.5700,2300
10,90.5400,90.5500,90.5150,90.5500,2675
11,90.5500,90.6900,90.5500,90.6600,1000
12,90.7300,90.7500,90.6400,90.6700,5676
13,90.6300,90.7100,90.6200,90.7100,3950
14,90.6900,90.7500,90.6400,90.7500,4225
15,90.7650,90.8800,90.7200,90.8101,8047
16,90.8800,90.9400,90.8300,90.8300,4000
17,90.8200,90.8700,90.7700,90.8500,3670
18,90.8500,90.8500,90.7800,90.7800,500
19,90.7600,90.7600,90.5700,90.5800,4795
20,90.5900,90.6300,90.5700,90.6000,2700
21,90.5900,90.7300,90.5800,90.6700,4833
22,90.6300,90.7700,90.6300,90.7300,3600
23,90.7200,90.8100,90.7000,90.7000,1900
24,90.7200,90.7200,90.6800,90.6800,1334
25,90.6700,90.6700,90.5400,90.5400,3000
26,90.5600,90.6200,90.5400,90.5800,3213
27,90.5900,90.6100,90.4500,90.4500,4500
28,90.4401,90.5200,90.4200,90.4900,4012
29,90.4950,90.5400,90.4400,90.4850,4786
30,90.5170,90.6500,90.5000,90.6500,6450
31,90.6400,90.7300,90.6000,90.6000,8100
32,90.5900,90.5900,90.4800,90.5000,3900
33,90.5400,90.5400,90.4700,90.4932,4281
34,90.5000,90.5000,90.4500,90.4500,3223
35,90.4500,90.4500,90.4300,90.4300,3502
36,90.4450,90.5400,90.4100,90.5400,21406
37,90.5400,90.5800,90.5000,90.5150,6647
38,90.5100,90.5200,90.4900,90.5150,2607
39,90.5000,90.5050,90.4400,90.4700,6590
40,90.4700,90.5500,90.4400,90.5500,4300
41,90.5200,90.6100,90.5200,90.6100,3697
42,90.6200,90.7100,90.6200,90.7100,1100
43,90.6850,90.7400,90.6700,90.7100,3000
44,90.6600,90.6700,90.5700,90.5900,4313
45,90.6000,90.6700,90.5800,90.6700,2740
46,90.6614,90.7600,90.6500,90.6900,6209
47,90.6700,90.6700,90.6300,90.6500,2250
48,90.6700,90.6900,90.6200,90.6800,5000
49,90.6300,90.6300,90.5850,90.5850,1200
50,90.5700,90.5700,90.4500,90.4500,7000
51,90.4650,90.4650,90.3700,90.4000,5500
52,90.3600,90.4200,90.3300,90.3900,3800
53,90.3952,90.4200,90.3200,90.4200,2650
54,90.3700,90.5100,90.3700,90.5100,1200
55,90.5300,90.5400,90.5100,90.5100,400
56,90.4700,90.4700,90.4200,90.4200,1718
57,90.4300,90.4300,90.3500,90.4200,2800
58,90.4400,90.4900,90.4400,90.4400,400
59,90.4500,90.4500,90.3800,90.4400,2050
60,90.4800,90.5500,90.0700,90.0700,10388
61,90.0700,90.1850,89.6700,89.7700,32829
62,89.7700,89.8600,89.3600,89.6600,25875
63,89.7000,89.9900,89.5289,89.8000,19181
64,89.7800,89.8100,89.6100,89.7350,18659
65,89.7800,89.8800,89.5700,89.6700,22462
66,89.6100,89.6100,89.0800,89.0900,18380
67,89.1000,89.3400,89.0800,89.1200,11626
68,89.1200,89.3200,89.0900,89.3050,12660
69,89.2500,89.6000,89.2400,89.4200,17797
70,89.3900,89.4200,89.2600,89.2700,6073
71,89.2800,89.5900,89.2500,89.3350,18313
72,89.3500,89.4500,89.3450,89.4100,3304
73,89.3850,89.4600,89.2000,89.2750,5740
74,89.3000,89.4500,89.2400,89.4400,8900
75,89.4550,89.4600,89.1900,89.2300,3000
76,89.1800,89.3500,89.1000,89.3500,21281
77,89.3000,89.3600,89.0900,89.2000,10500
78,89.2400,89.4800,89.2200,89.3100,11699
79,89.3000,89.3100,89.1200,89.2700,13841
80,89.2700,89.3600,89.1700,89.1700,5405
81,89.1650,89.2000,89.0900,89.1350,14616
82,89.1600,89.2000,89.0400,89.2000,22630
83,89.2000,89.3200,89.1850,89.2850,31443
84,89.3000,89.3000,89.0300,89.1040,8700
85,89.0920,89.2550,89.0900,89.1850,11096
86,89.2100,89.2800,89.1300,89.2000,6056
87,89.1800,89.2200,89.0500,89.0875,10020
88,89.0950,89.2300,89.0950,89.1900,7600
89,89.1750,89.2300,89.0800,89.1200,10282
90,89.1200,89.2100,89.1000,89.2100,8112
91,89.1700,89.1800,89.0100,89.0400,8470
92,89.0300,89.0500,88.8700,88.9000,14209
93,88.8600,88.9250,88.8190,88.9000,9757
94,88.8800,88.8800,88.7550,88.8700,11359
95,88.8650,88.8900,88.8200,88.8900,6099
96,88.8700,88.8827,88.7500,88.7800,6548
97,88.7800,88.7800,88.6500,88.7600,4940
98,88.7600,88.9100,88.7300,88.9100,7720
99,88.9400,88.9500,88.8700,88.9500,3600
100,89.0000,89.0700,88.9700,89.0300,4800
101,89.0300,89.0300,88.8900,88.8900,4041
102,88.8900,88.9500,88.8844,88.9500,3626
103,88.9400,89.0400,88.9300,88.9700,11017
104,88.9700,89.0700,88.9700,89.0200,7550
105,89.0100,89.1100,88.9600,89.1100,8743
106,89.0800,89.1200,88.9500,89.0100,5110
107,89.0100,89.0700,88.9700,88.9700,3400
108,88.9900,89.0400,88.9700,88.9700,1900
109,88.9859,88.9859,88.9000,88.9000,1942
110,88.9000,88.9600,88.9000,88.9450,4929
111,88.9700,89.0100,88.9400,88.9800,5535
112,88.9900,89.0600,88.9200,88.9200,6900
113,88.9200,89.0000,88.8800,88.9950,7747
114,88.9500,88.9500,88.8900,88.8901,1845
115,88.9050,88.9400,88.8800,88.9400,3174
116,88.9000,88.9000,88.7700,88.7700,5350
117,88.7600,88.7700,88.6400,88.6400,4485
118,88.6600,88.7000,88.5600,88.5800,13183
119,88.5820,88.7000,88.5600,88.7000,12193
120,88.7100,88.7200,88.6300,88.6300,8710
121,88.6400,88.7400,88.5500,88.7400,6500
122,88.7500,88.8000,88.6500,88.6800,3964
123,88.6702,88.7600,88.6701,88.7600,2947
124,88.7600,88.8200,88.7100,88.7100,2700
125,88.7250,88.7500,88.6300,88.6600,16400
126,88.6400,88.6600,88.5701,88.6450,17881
127,88.6600,88.6690,88.5400,88.6300,12575
128,88.6500,88.6900,88.6100,88.6200,7511
129,88.6100,88.6100,88.4400,88.4650,23359
130,88.4400,88.4400,88.2600,88.2700,14914
131,88.2700,88.3900,88.2700,88.3300,11933
132,88.3400,88.3400,88.1100,88.2100,16191
133,88.1900,88.2100,88.0900,88.0900,16521
134,88.1200,88.1400,87.8300,87.9000,42498
135,87.8900,87.9500,87.8700,87.8800,5538
136,87.8773,87.9200,87.8400,87.9200,7810
137,87.9200,88.0300,87.9200,88.0300,12510
138,88.0300,88.0500,87.9200,87.9400,6035
139,87.9500,88.0300,87.9500,88.0300,2371
140,88.0500,88.0600,87.9700,87.9700,4672
141,87.9500,87.9600,87.8000,87.8000,12651
142,87.8050,87.8400,87.7950,87.8300,8933
143,87.8500,87.8800,87.8350,87.8470,5700
144,87.8500,87.9200,87.8350,87.9050,8899
145,87.8900,87.9128,87.8200,87.9100,10136
146,87.9299,87.9300,87.8450,87.8800,5221
147,87.9000,88.0000,87.9000,87.9700,7112
148,87.9600,88.0000,87.9600,88.0000,5309
149,88.0100,88.0700,88.0100,88.0300,3092
150,88.0400,88.0800,87.9850,88.0800,8914
151,88.0800,88.2200,88.0000,88.2200,41028
152,88.2200,88.2300,88.1700,88.2100,45210
153,88.2200,88.2800,88.1900,88.2300,7631
154,88.2250,88.2400,88.2000,88.2200,6801
155,88.2050,88.2050,88.2000,88.2000,500
156,88.2000,88.2800,88.2000,88.2800,2850
157,88.2800,88.3300,88.2500,88.3200,4377
158,88.3100,88.3700,88.3100,88.3700,2800
159,88.3800,88.4500,88.3800,88.4500,2600
160,88.4400,88.4690,88.4000,88.4200,1881
161,88.4200,88.4700,88.3900,88.3900,2500
162,88.4150,88.4300,88.4100,88.4100,1200
163,88.3900,88.3900,88.3400,88.3550,1450
164,88.3600,88.3900,88.3600,88.3750,7380
165,88.3700,88.3800,88.2800,88.3100,4527
166,88.3050,88.3100,88.2400,88.2400,1400
167,88.2250,88.2500,88.2250,88.2300,2800
168,88.2200,88.2400,88.1900,88.2000,6400
169,88.1900,88.2101,88.1800,88.2000,9058
170,88.2000,88.2201,88.1800,88.2000,19665
171,88.2000,88.2200,88.1900,88.1950,12559
172,88.2000,88.2100,88.1700,88.2000,11964
173,88.2100,88.2200,88.1900,88.2000,12637
174,88.2000,88.2100,88.1800,88.2100,5500
175,88.2100,88.2200,88.2000,88.2000,7681
176,88.2000,88.2200,88.1900,88.2000,9246
177,88.2000,88.2200,88.1900,88.2000,8502
178,88.2100,88.2300,88.2000,88.2260,5824
179,88.2100,88.2400,88.1900,88.2000,7068
180,88.1900,88.1950,88.0900,88.1300,3300
181,88.1350,88.1350,88.0800,88.0800,1101
182,88.0700,88.1100,87.9903,88.0300,5653
183,88.0600,88.1300,88.0600,88.1300,2000
184,88.0600,88.0600,87.9500,87.9500,12235
185,87.9300,87.9300,87.8300,87.8301,8737
186,87.8400,87.8600,87.7700,87.7800,18844
187,87.7675,87.7675,87.6310,87.6600,9901
188,87.6700,87.7100,87.6200,87.6200,12289
189,87.6200,87.6900,87.5900,87.6600,8801
190,87.6598,87.6900,87.6400,87.6600,3150
191,87.6900,87.7000,87.6400,87.6600,2500
192,87.6600,87.7000,87.6500,87.6500,3333
193,87.6700,87.7200,87.6600,87.7100,3800
194,87.7120,87.7120,87.6100,87.6400,2700
195,87.6468,87.6699,87.6210,87.6300,12217
196,87.6300,87.6300,87.5500,87.5800,15211
197,87.5900,87.5900,87.5000,87.5480,16467
198,87.5500,87.5900,87.4100,87.4250,22489
199,87.4645,87.4700,87.4300,87.4400,1817
200,87.4400,87.5400,87.4400,87.5000,4525
201,87.5200,87.6000,87.5200,87.6000,3205
202,87.6000,87.6300,87.5300,87.6293,4025
203,87.6210,87.7100,87.6210,87.6700,5185
204,87.6800,87.6800,87.6500,87.6700,5743
205,87.6600,87.6600,87.5900,87.6150,11641
206,87.6150,87.6200,87.5700,87.6150,7108
207,87.6280,87.6800,87.6116,87.6463,6215
208,87.6500,87.7375,87.6500,87.7200,10206
209,87.7200,87.8200,87.7200,87.8200,6225
210,87.8002,87.8397,87.8000,87.8100,6342
211,87.8300,87.8300,87.7200,87.7558,9309
212,87.7300,87.7700,87.7300,87.7600,6137
213,87.7800,87.8000,87.7600,87.8000,4500
214,87.7800,87.8200,87.7700,87.8000,2850
215,87.8000,87.8100,87.7700,87.7700,1100
216,87.7800,87.8300,87.7800,87.8300,2932
217,87.8300,87.8300,87.7900,87.7900,1281
218,87.8000,87.8100,87.7700,87.8100,1718
219,87.8000,87.8000,87.7800,87.7800,500
220,87.7800,87.8000,87.7600,87.7600,3900
221,87.7900,87.7900,87.7200,87.7325,3503
222,87.7103,87.7600,87.7103,87.7500,1400
223,87.7100,87.7400,87.7000,87.7200,1320
224,87.7600,87.7600,87.7000,87.7600,8220
225,87.7600,87.7600,87.7300,87.7500,2600
226,87.7400,87.7500,87.6500,87.6700,10783
227,87.6800,87.7600,87.6800,87.7000,5484
228,87.6800,87.6800,87.6100,87.6500,2800
229,87.6300,87.6300,87.5800,87.5800,1100
230,87.5800,87.5900,87.5600,87.5800,2810
231,87.5700,87.5700,87.5100,87.5600,3797
232,87.5600,87.5600,87.5600,87.5600,200
233,87.5600,87.5700,87.5500,87.5700,600
234,87.5600,87.6200,87.5600,87.6100,2725
235,87.6300,87.7100,87.6300,87.7100,1025
236,87.7500,87.8000,87.7400,87.7400,1800
237,87.7301,87.8000,87.7301,87.8000,1202
238,87.8100,87.8400,87.7600,87.7700,2844
239,87.7500,87.8400,87.7500,87.8400,4735
240,87.8400,87.8400,87.8100,87.8400,24182
241,87.8400,87.8699,87.7800,87.7800,18145
242,87.7675,87.8000,87.7675,87.8000,3267
243,87.8000,87.8300,87.8000,87.8100,3600
244,87.8000,87.8100,87.7110,87.7200,4400
245,87.7000,87.7400,87.6800,87.7200,5825
246,87.7100,87.7200,87.7000,87.7200,709
247,87.7400,87.7600,87.7200,87.7400,7010
248,87.7373,87.7900,87.7350,87.7600,12972
249,87.7700,87.8100,87.7675,87.8100,7100
250,87.7900,87.8400,87.7900,87.8300,21003
251,87.8293,87.8500,87.8200,87.8400,4600
252,87.8400,87.8400,87.6600,87.7700,15629
253,87.7800,87.8200,87.7500,87.8000,8846
254,87.8100,87.8600,87.7810,87.7810,6436
255,87.8200,87.8200,87.7800,87.8050,4256
256,87.8200,87.8200,87.7477,87.7500,7950
257,87.7500,87.8450,87.7500,87.8400,5107
258,87.8400,87.8780,87.8204,87.8400,14296
259,87.8600,87.9700,87.8600,87.9171,14156
260,87.9300,87.9400,87.9000,87.9100,12901
261,87.8900,87.8900,87.8200,87.8500,5242
262,87.8350,87.8525,87.8350,87.8450,6772
263,87.8475,87.8900,87.8475,87.8900,4200
264,87.9000,87.9000,87.8800,87.9000,3900
265,87.9100,87.9100,87.8900,87.9095,2100
266,87.9200,87.9700,87.9100,87.9700,4400
267,88.0000,88.0400,87.9800,88.0200,13242
268,88.0100,88.0300,88.0000,88.0000,9669
269,88.0100,88.0150,87.9300,87.9300,5950
270,87.9200,87.9200,87.8000,87.8700,7086
271,87.9000,87.9100,87.8900,87.9100,2300
272,87.9000,87.9900,87.9000,87.9700,4004
273,87.9700,87.9800,87.9700,87.9790,2876
274,87.9600,88.0000,87.9600,87.9600,10096
275,87.9400,87.9600,87.9250,87.9250,9667
276,87.8900,87.9900,87.8775,87.9600,4434
277,87.9100,87.9250,87.7910,87.7910,2500
278,87.8100,87.9500,87.8100,87.9500,3702
279,87.9400,87.9700,87.9200,87.9700,4577
280,87.9500,88.0100,87.9400,88.0100,16721
281,87.9900,88.0300,87.9900,88.0300,6607
282,88.0000,88.1000,88.0000,88.0800,5600
283,88.1000,88.1500,88.0600,88.1500,6379
284,88.1600,88.2100,88.1600,88.2100,6595
285,88.2100,88.2350,88.1800,88.1829,7436
286,88.1900,88.2350,88.1800,88.2350,7107
287,88.2200,88.2700,88.2000,88.2700,6907
288,88.2800,88.3100,88.2800,88.3100,1800
289,88.3100,88.3300,88.3073,88.3300,4112
290,88.3300,88.3700,88.3150,88.3700,2664
291,88.3700,88.4100,88.3300,88.3350,18592
292,88.3350,88.3400,88.2300,88.2650,8500
293,88.2600,88.2700,88.1800,88.2100,15918
294,88.2000,88.2300,88.2000,88.2186,1500
295,88.2300,88.2600,88.2281,88.2600,5201
296,88.2800,88.3300,88.2800,88.3300,3139
297,88.3100,88.3300,88.0800,88.1000,19349
298,88.1200,88.2500,88.1200,88.2500,12165
299,88.2500,88.2700,88.2000,88.2010,14019
300,88.1800,88.3000,88.1600,88.3000,8854
301,88.3000,88.3900,88.3000,88.3800,16588
302,88.3600,88.5100,88.3600,88.4900,32054
303,88.5000,88.5400,88.4950,88.5300,14154
304,88.5300,88.5900,88.5100,88.5700,18783
305,88.5600,88.6300,88.5100,88.5700,26762
306,88.5700,88.6300,88.3600,88.3800,28945
307,88.3800,88.4500,88.3700,88.4500,22380
308,88.4500,88.4700,88.4360,88.4500,7635
309,88.4400,88.4500,88.3900,88.4200,13609
310,88.4300,88.4500,88.4100,88.4500,3581
311,88.4500,88.4900,88.4400,88.4900,4800
312,88.4900,88.4900,88.4200,88.4350,16954
313,88.4400,88.4400,88.3600,88.3600,2500
314,88.3400,88.4000,88.2700,88.3000,7820
315,88.3050,88.3600,88.3050,88.3600,1365
316,88.3600,88.4100,88.3600,88.4100,9677
317,88.4200,88.4500,88.4096,88.4500,4948
318,88.4410,88.5200,88.4410,88.5200,1950
319,88.5250,88.5300,88.5000,88.5286,19672
320,88.5300,88.5600,88.5300,88.5500,4041
321,88.5450,88.5700,88.5150,88.5150,27595
322,88.5150,88.5290,88.4500,88.4800,3236
323,88.4700,88.4700,88.4000,88.4000,5917
324,88.3800,88.4200,88.3700,88.3850,2671
325,88.3600,88.3600,88.3000,88.3000,2200
326,88.2900,88.3100,88.2200,88.2350,11681
327,88.2400,88.3400,88.2100,88.3300,11500
328,88.3450,88.3450,88.2600,88.2750,16631
329,88.2900,88.3000,88.2700,88.2900,4500
330,88.2800,88.2800,88.2300,88.2300,1605
331,88.2200,88.2200,88.1100,88.1300,7501
332,88.1400,88.1943,88.1200,88.1700,6038
333,88.1800,88.1800,88.0500,88.1300,20718
334,88.1000,88.1750,88.1000,88.1500,4791
335,88.1500,88.1700,88.1100,88.1200,3861
336,88.1300,88.1300,88.0800,88.1050,5647
337,88.1050,88.1200,88.0400,88.0400,18210
338,88.0400,88.1190,88.0400,88.1190,18146
339,88.1100,88.1400,88.1100,88.1400,4417
340,88.1350,88.2400,88.1200,88.2000,8153
341,88.2000,88.2000,88.1900,88.2000,8964
342,88.2000,88.2300,88.2000,88.2300,1882
343,88.2270,88.2400,88.2270,88.2350,8077
344,88.2400,88.3000,88.2400,88.2866,9550
345,88.3000,88.3400,88.2900,88.3400,7245
346,88.3400,88.3600,88.3400,88.3600,13876
347,88.3700,88.3850,88.3300,88.3500,16153
348,88.3400,88.3550,88.3000,88.3150,15749
349,88.3100,88.3300,88.2900,88.2900,14911
350,88.2900,88.2900,88.2200,88.2300,7051
351,88.2300,88.2400,88.2100,88.2150,7550
352,88.2100,88.2900,88.2100,88.2800,18175
353,88.2900,88.3600,88.2900,88.3500,21353
354,88.3500,88.3635,88.3300,88.3485,29681
355,88.3400,88.4400,88.3400,88.4400,20333
356,88.4600,88.5100,88.4400,88.4900,21344
357,88.4900,88.4900,88.4500,88.4600,3531
358,88.4600,88.5800,88.4600,88.5800,12369
359,88.5700,88.5800,88.5500,88.5800,8934
360,88.5600,88.5700,88.4700,88.4750,10668
361,88.4700,88.5250,88.4700,88.5250,17080
362,88.5700,88.5900,88.5300,88.5300,2457
363,88.5400,88.6300,88.5300,88.6300,6578
364,88.6400,88.6900,88.5900,88.5900,3800
365,88.5800,88.6200,88.5800,88.6100,4449
366,88.6100,88.6100,88.5700,88.5700,700
367,88.5600,88.5800,88.5100,88.5100,3228
368,88.5200,88.5300,88.5200,88.5200,1400
369,88.5300,88.5500,88.4300,88.4300,5401
370,88.4400,88.4500,88.3600,88.3700,2909
371,88.3500,88.3500,88.2900,88.2900,3283
372,88.3000,88.3200,88.3000,88.3100,2697
373,88.3100,88.4900,88.3100,88.4100,7406
374,88.3600,88.3900,88.3300,88.3600,2690
375,88.3500,88.3500,88.3000,88.3400,3486