PPG,PPG Industries,Materials,8,Specialty Chemicals,27633372080,1152147
a149944500073,108.4300,108.4600,108.4200,108.4600,4427
374,108.4600,108.4700,108.4400,108.4700,4411
375,108.4700,108.4700,108.4100,108.4100,5973
376,108.4300,108.4300,108.4100,108.4200,5890
377,108.4200,108.4300,108.4000,108.4100,6982
378,108.4190,108.4600,108.4090,108.4600,3466
379,108.4600,108.4700,108.4500,108.4699,3637
380,108.4600,108.5000,108.4600,108.4900,5362
381,108.4800,108.5260,108.4600,108.4700,7180
382,108.4790,108.4900,108.4500,108.4600,5210
383,108.4500,108.4800,108.4100,108.4200,7317
384,108.4100,108.4300,108.4050,108.4200,4634
385,108.4100,108.4400,108.4000,108.4300,5633
386,108.4400,108.4400,108.4000,108.4100,8620
387,108.4150,108.4500,108.4100,108.4500,7664
388,108.4450,108.4500,108.4000,108.4300,9501
389,108.4300,108.4600,108.4300,108.4400,7773
390,108.4400,108.4400,108.3500,108.3700,16784
0,108.5700,108.7400,108.5200,108.7400,10319
1,108.5050,108.7500,108.3800,108.3800,700
2,108.5600,108.5600,108.3700,108.3750,300
3,108.3800,108.3800,108.0700,108.0700,2700
4,108.1500,108.1500,107.9900,107.9900,275
5,108.1000,108.3000,107.9900,107.9900,1715
6,108.1350,108.2750,108.0500,108.2750,2500
7,108.1850,108.2800,108.0600,108.0600,11600
8,108.1700,108.1700,107.9800,107.9800,96019
9,108.0300,108.0300,107.9600,107.9700,4831
10,107.9700,107.9700,107.9450,107.9450,200
11,107.9800,108.0300,107.9750,107.9750,52900
12,108.0100,108.0200,107.9000,107.9100,4520
13,107.9400,108.0600,107.8500,108.0600,3343
14,108.0300,108.0300,107.9000,107.9100,4600
15,107.9100,108.1000,107.9100,108.1000,4700
16,108.0700,108.0800,107.9500,107.9500,43400
17,107.8712,107.8712,107.8700,107.8700,347
18,107.8700,107.9200,107.8400,107.9050,2938
19,107.8900,108.0100,107.8900,107.9900,2524
20,107.9950,107.9950,107.9100,107.9500,3000
21,107.9600,107.9600,107.8900,107.9000,2600
22,107.9000,108.0100,107.8500,107.9100,5016
23,107.9200,107.9200,107.8500,107.8700,5800
24,107.8700,107.9200,107.8700,107.9000,1300
25,107.9300,108.0000,107.8650,107.9000,45309
26,107.9000,107.9400,107.8300,107.9400,3417
27,107.9600,107.9600,107.8700,107.8800,1600
28,107.8900,107.8900,107.8900,107.8900,300
29,107.8800,107.9400,107.8800,107.9150,2000
30,107.8800,107.9000,107.8600,107.9000,1700
31,107.9200,108.0200,107.9000,107.9900,7389
32,107.9900,108.2300,107.9900,108.1500,6952
33,108.1200,108.1500,108.0700,108.0700,2600
34,108.0300,108.1000,108.0250,108.0700,3520
35,108.0800,108.1400,108.0800,108.1400,1346
36,108.2100,108.2100,108.0700,108.0700,3796
37,108.0800,108.1000,108.0800,108.0850,1600
38,108.0700,108.0700,108.0000,108.0000,2050
39,107.9900,108.0350,107.9900,108.0300,2901
40,108.0300,108.0300,107.9600,107.9600,1500
41,107.9600,107.9600,107.9255,107.9500,1200
42,107.9800,108.0100,107.9300,107.9550,3700
43,107.9800,107.9900,107.9700,107.9700,600
45,107.9900,108.0000,107.9600,107.9800,4349
46,107.9700,108.0200,107.9500,107.9700,8100
48,107.9500,107.9500,107.9300,107.9400,1000
49,107.9700,107.9700,107.9700,107.9700,446
50,107.9600,107.9900,107.9400,107.9700,2533
51,107.9800,107.9800,107.9600,107.9700,500
52,107.9300,107.9300,107.9000,107.9200,4000
53,107.8822,107.8822,107.8822,107.8822,231
54,107.9200,107.9500,107.9200,107.9400,3756
55,107.9300,107.9300,107.9000,107.9000,800
56,107.9000,107.9000,107.8500,107.8700,2500
57,107.8600,107.8600,107.8300,107.8300,1300
58,107.8350,107.8350,107.8100,107.8200,1100
59,107.8200,107.8600,107.8200,107.8600,1000
60,107.8300,107.8700,107.8300,107.8300,2300
61,107.8000,107.8300,107.6000,107.7100,6480
62,107.6700,107.6900,107.6700,107.6800,600
63,107.6800,107.7700,107.6700,107.7600,2734
64,107.7700,107.7800,107.7400,107.7750,1587
65,107.8000,107.8500,107.7400,107.7900,3446
66,107.7600,107.8000,107.7100,107.7300,1200
67,107.7100,107.7100,107.6000,107.6700,1700
68,107.6900,107.7000,107.6300,107.6400,1602
69,107.6500,107.7000,107.6500,107.6900,1250
70,107.6900,107.7000,107.6700,107.6700,1694
71,107.6900,107.7300,107.6200,107.7200,2700
72,107.7500,107.7900,107.7500,107.7900,400
73,107.8251,107.8400,107.7800,107.8400,800
74,107.8600,107.8800,107.8300,107.8800,1300
75,107.8800,107.8900,107.8550,107.8900,600
76,107.8300,107.8600,107.7700,107.8200,2805
77,107.8500,107.8500,107.8500,107.8500,300
78,107.8300,107.9600,107.8300,107.9600,2900
79,107.9100,107.9400,107.8800,107.9175,3103
80,107.9220,108.0000,107.9220,108.0000,2803
81,108.0000,108.0300,107.8900,107.9200,12740
82,107.9100,107.9100,107.8100,107.8900,7600
83,107.8900,107.9000,107.8500,107.8884,25001
84,107.8500,107.8900,107.7600,107.7600,102583
85,107.7800,107.8300,107.7800,107.8200,1700
86,107.8700,107.9000,107.7900,107.8000,112750
87,107.7900,107.8100,107.7200,107.7500,12046
89,107.7700,107.8000,107.7700,107.8000,6217
90,107.8000,107.8000,107.7800,107.8000,3559
91,107.8000,107.8000,107.7700,107.8000,4100
92,107.7900,107.7900,107.7700,107.7900,1111
93,107.7900,107.8000,107.7800,107.7800,1900
94,107.7700,107.7800,107.7400,107.7400,2810
95,107.7500,107.7500,107.7300,107.7400,2000
96,107.7500,107.7600,107.7400,107.7500,2500
97,107.7600,107.8300,107.7600,107.8300,3500
98,107.8300,107.9400,107.8150,107.9400,5300
99,107.9400,107.9400,107.9300,107.9300,400
101,107.9500,107.9500,107.9000,107.9400,4356
102,107.9500,107.9600,107.9000,107.9400,1400
103,107.9500,107.9500,107.9400,107.9400,300
105,107.9500,107.9500,107.8800,107.9000,1514
106,107.8700,107.9000,107.8600,107.8997,3622
107,107.8850,107.9100,107.8400,107.8400,3262
108,107.8400,107.8400,107.8200,107.8300,1401
109,107.8300,107.8300,107.8200,107.8300,4153
110,107.8400,107.8600,107.8300,107.8300,2300
111,107.8000,107.8300,107.8000,107.8300,4345
112,107.8400,107.8900,107.8400,107.8900,1478
113,107.9000,107.9200,107.9000,107.9200,492
114,107.9400,107.9800,107.9400,107.9800,913
115,107.9900,107.9900,107.9300,107.9400,2401
116,107.9200,107.9200,107.8800,107.8800,600
117,107.8600,107.8600,107.7800,107.8100,2800
118,107.8100,107.8100,107.8100,107.8100,100
119,107.8200,107.8200,107.8050,107.8050,600
120,107.7900,107.8000,107.7400,107.7500,3230
121,107.7200,107.7600,107.7200,107.7300,2805
122,107.7600,107.8300,107.7600,107.8300,722
123,107.7900,107.8400,107.7500,107.8400,5062
124,107.7928,107.7928,107.7900,107.7900,200
125,107.8200,107.8300,107.7500,107.7500,2500
126,107.7500,107.7681,107.7200,107.7200,700
128,107.7400,107.7400,107.7100,107.7350,7000
129,107.7350,107.7600,107.7000,107.7500,6300
130,107.7400,107.7800,107.7300,107.7700,2300
131,107.7700,107.7700,107.7400,107.7500,2762
132,107.7500,107.7800,107.7300,107.7400,7280
133,107.7600,107.7700,107.7600,107.7700,600
134,107.7700,107.7900,107.7700,107.7900,900
135,107.7700,107.7900,107.7500,107.7900,1700
136,107.7900,107.8200,107.7500,107.8200,3900
137,107.8200,107.8200,107.8200,107.8200,400
138,107.8100,107.8100,107.8100,107.8100,600
139,107.8200,107.8400,107.8200,107.8400,2143
140,107.8210,107.8300,107.8000,107.8000,3800
141,107.7900,107.7900,107.7700,107.7700,400
142,107.7900,107.7900,107.7700,107.7800,2106
144,107.8000,107.8000,107.7800,107.8000,3090
145,107.7800,107.7900,107.7700,107.7700,1100
146,107.7699,107.7900,107.7699,107.7750,576
147,107.7900,107.7900,107.7300,107.7300,2900
148,107.7400,107.7500,107.7400,107.7400,800
149,107.7400,107.7500,107.7400,107.7500,1200
150,107.7200,107.7500,107.7150,107.7200,1300
151,107.7200,107.7200,107.7200,107.7200,300
152,107.7000,107.7200,107.6600,107.6600,2600
153,107.6800,107.6800,107.6400,107.6550,1657
154,107.6400,107.6500,107.6150,107.6400,42750
156,107.6600,107.6700,107.6500,107.6600,1300
157,107.6498,107.6700,107.6498,107.6700,708
158,107.6800,107.7400,107.6800,107.7400,800
159,107.7500,107.7500,107.7500,107.7500,600
160,107.7200,107.7500,107.7200,107.7500,600
161,107.7500,107.8800,107.7500,107.8400,3890
162,107.8500,107.8800,107.8500,107.8760,1092
163,107.8800,107.9200,107.8400,107.8400,1837
164,107.8600,107.8900,107.8600,107.8900,900
165,107.9000,107.9300,107.9000,107.9300,1000
166,107.9300,107.9300,107.9100,107.9100,1900
167,107.9050,107.9050,107.9050,107.9050,100
168,107.9200,107.9300,107.9100,107.9200,1184
169,107.9200,107.9250,107.9100,107.9150,1666
170,107.8900,107.9100,107.8800,107.9100,1600
171,107.9200,107.9200,107.9200,107.9200,300
172,107.9200,107.9200,107.9200,107.9200,300
173,107.9300,107.9300,107.9100,107.9100,1757
174,107.9300,107.9300,107.9000,107.9000,1440
175,107.9100,107.9100,107.9100,107.9100,200
176,107.9050,107.9100,107.8900,107.8900,3000
177,107.8904,107.9200,107.8900,107.9200,1950
179,107.9000,107.9100,107.9000,107.9100,900
180,107.9000,107.9000,107.8800,107.9000,1322
181,107.8850,107.8850,107.8600,107.8800,800
182,107.8850,107.8850,107.8400,107.8400,1200
183,107.8700,107.8700,107.8700,107.8700,100
185,107.8600,107.8800,107.8400,107.8500,1100
186,107.8600,107.8700,107.7400,107.7900,4330
187,107.7900,107.8200,107.7900,107.8100,2049
188,107.7900,107.8100,107.7900,107.8100,200
189,107.8100,107.8200,107.7900,107.8000,2600
190,107.8000,107.8000,107.7850,107.7900,1400
191,107.8000,107.8000,107.7700,107.7700,1105
192,107.7500,107.7650,107.7500,107.7650,300
193,107.7500,107.7500,107.7500,107.7500,100
194,107.7800,107.7900,107.7650,107.7900,2000
195,107.7800,107.7800,107.7600,107.7600,300
197,107.7600,107.7700,107.7400,107.7700,2000
198,107.7400,107.7500,107.6800,107.6900,1500
199,107.6700,107.6700,107.6663,107.6663,400
200,107.6900,107.6900,107.6600,107.6600,400
201,107.6500,107.6500,107.6100,107.6100,1000
202,107.6000,107.6200,107.5800,107.5950,1100
204,107.5991,107.5991,107.5800,107.5900,626
205,107.5800,107.6000,107.5800,107.5900,1600
206,107.5800,107.5800,107.5500,107.5600,2048
207,107.5500,107.5500,107.5400,107.5400,1400
208,107.5500,107.5800,107.5500,107.5800,1615
209,107.6000,107.6200,107.5701,107.5701,1061
211,107.6100,107.6200,107.6100,107.6200,400
212,107.6100,107.6300,107.6000,107.6100,2075
213,107.6300,107.6400,107.6200,107.6400,1300
214,107.6200,107.6400,107.6100,107.6400,1794
215,107.6500,107.7000,107.6500,107.6900,3100
216,107.6900,107.6900,107.6800,107.6800,1000
217,107.7000,107.7000,107.7000,107.7000,200
218,107.7000,107.7200,107.7000,107.7200,900
219,107.7300,107.7300,107.7250,107.7250,200
220,107.7400,107.7400,107.7000,107.7200,2725
222,107.7400,107.7400,107.7400,107.7400,600
223,107.7400,107.7400,107.7400,107.7400,300
224,107.7414,107.7800,107.7414,107.7700,1824
225,107.7700,107.7900,107.7600,107.7700,2100
226,107.7700,107.7700,107.7700,107.7700,100
227,107.7800,107.7800,107.7500,107.7500,600
228,107.7500,107.7600,107.7100,107.7100,2700
229,107.6900,107.6900,107.6900,107.6900,100
230,107.6850,107.6850,107.6500,107.6500,400
231,107.6200,107.6200,107.5900,107.6100,900
232,107.6200,107.6200,107.6200,107.6200,800
233,107.6200,107.6400,107.6200,107.6400,1550
234,107.6300,107.6490,107.6200,107.6200,1875
235,107.6200,107.7100,107.6200,107.7096,4654
236,107.7000,107.7000,107.6300,107.6300,1300
237,107.6300,107.6900,107.6300,107.6900,22805
238,107.6650,107.6650,107.6650,107.6650,300
239,107.6800,107.6800,107.6600,107.6600,1200
240,107.6600,107.6600,107.6600,107.6600,1034
241,107.6800,107.6800,107.6500,107.6550,1997
242,107.6400,107.6400,107.6100,107.6100,1000
243,107.5700,107.5700,107.5700,107.5700,1000
246,107.5550,107.5800,107.5300,107.5800,3000
247,107.5900,107.6300,107.5900,107.6100,1700
248,107.6050,107.6200,107.6000,107.6200,1500
249,107.6500,107.6500,107.6400,107.6500,600
250,107.6550,107.6550,107.6300,107.6300,2534
251,107.6300,107.6300,107.6050,107.6200,2765
252,107.6400,107.6400,107.6250,107.6250,500
253,107.6200,107.6200,107.5800,107.5800,900
254,107.5900,107.5900,107.5700,107.5700,500
255,107.5600,107.5800,107.5300,107.5800,500
256,107.5500,107.5700,107.5500,107.5600,600
257,107.5600,107.6800,107.5600,107.6700,10774
258,107.6800,107.7000,107.6700,107.6900,7397
259,107.7000,107.7328,107.7000,107.7250,2715
260,107.7000,107.7250,107.7000,107.7250,25200
261,107.7400,107.7400,107.7200,107.7243,1700
262,107.7500,107.7500,107.7500,107.7500,700
263,107.7800,107.8000,107.7800,107.7900,2000
264,107.8070,107.8070,107.7700,107.7700,1339
265,107.7600,107.7700,107.7500,107.7500,400
266,107.7200,107.7391,107.7200,107.7200,380
267,107.7500,107.7600,107.7000,107.7100,5767
268,107.7000,107.7000,107.7000,107.7000,100
269,107.6900,107.6900,107.6500,107.6500,3300
270,107.6550,107.6550,107.6550,107.6550,100
271,107.6700,107.6700,107.6400,107.6400,650
272,107.6200,107.6300,107.6100,107.6100,2700
274,107.6100,107.6100,107.5900,107.5900,1500
275,107.6200,107.6400,107.6050,107.6300,3606
276,107.6500,107.7000,107.6500,107.7000,1600
277,107.6600,107.6800,107.6400,107.6500,22800
278,107.6700,107.7000,107.6700,107.7000,3200
279,107.6900,107.6900,107.6300,107.6300,2136
280,107.6100,107.6200,107.6000,107.6150,2000
281,107.6300,107.6500,107.6300,107.6500,300
282,107.6276,107.6524,107.6276,107.6500,20859
283,107.6350,107.6350,107.6350,107.6350,300
284,107.6350,107.6350,107.6200,107.6200,1100
285,107.6003,107.6100,107.5700,107.5700,3358
286,107.5900,107.6000,107.5600,107.5600,2239
287,107.5800,107.5800,107.5700,107.5700,300
288,107.5500,107.5900,107.5500,107.5800,2000
289,107.5900,107.5900,107.5900,107.5900,600
290,107.5900,107.6200,107.5750,107.6200,4700
291,107.6300,107.6300,107.6000,107.6000,1300
292,107.6000,107.6200,107.6000,107.6200,700
293,107.6300,107.6400,107.6200,107.6200,1300
294,107.6000,107.6200,107.5900,107.5900,2100
295,107.5800,107.5800,107.5800,107.5800,100
296,107.5950,107.6700,107.5950,107.6600,2200
297,107.6700,107.6700,107.6200,107.6200,2600
298,107.6300,107.6400,107.6300,107.6400,800
299,107.6500,107.6900,107.6500,107.6900,1300
300,107.6900,107.6950,107.6700,107.6700,14147
301,107.6900,107.7100,107.6868,107.6900,51264
302,107.6900,107.6900,107.6900,107.6900,31000
303,107.6850,107.7200,107.6850,107.7200,2100
304,107.7200,107.7800,107.7200,107.7800,1800
305,107.8000,107.8200,107.7950,107.8200,300
306,107.7900,107.7900,107.7900,107.7900,100
307,107.8050,107.8050,107.7600,107.7600,5750
308,107.7600,107.7600,107.7300,107.7300,700
309,107.7300,107.7300,107.6900,107.6900,2000
310,107.7000,107.7000,107.6700,107.6900,4801
311,107.6800,107.7100,107.6600,107.7100,3100
312,107.7000,107.7000,107.7000,107.7000,50000
313,107.7200,107.7800,107.7200,107.7800,2746
314,107.7800,107.8200,107.7800,107.8100,900
315,107.8300,107.8700,107.8200,107.8700,900
316,107.8750,107.8750,107.8750,107.8750,200
317,107.8600,107.8900,107.8500,107.8900,2800
318,107.9100,107.9800,107.9100,107.9600,3239
319,107.9700,108.0000,107.9400,107.9600,1800
321,107.9500,108.0000,107.9300,108.0000,4035
322,107.9500,107.9500,107.9500,107.9500,200
323,107.9600,107.9600,107.9600,107.9600,100
324,107.9700,107.9700,107.9200,107.9300,2274
325,107.9300,107.9600,107.9300,107.9600,1012
326,107.9500,107.9548,107.9444,107.9444,633
327,107.9424,107.9424,107.9197,107.9302,2256
328,107.9300,107.9486,107.9250,107.9486,926
329,107.9414,107.9500,107.9300,107.9300,600
330,107.9300,107.9400,107.9300,107.9400,900
331,107.9500,107.9700,107.9500,107.9600,1600
332,107.9600,108.0000,107.9600,107.9700,2901
333,107.9600,107.9600,107.9500,107.9500,459
334,107.9600,108.0000,107.9600,107.9800,2508
335,107.9834,108.0000,107.9800,107.9900,833
336,108.0000,108.0100,108.0000,108.0000,1500
337,108.0000,108.0200,107.9800,108.0000,6009
338,108.0100,108.0100,108.0100,108.0100,400
339,108.0100,108.0100,108.0100,108.0100,400
340,108.0200,108.0200,107.9900,108.0000,1600
341,108.0100,108.0200,108.0000,108.0100,2803
342,108.0000,108.0100,108.0000,108.0100,1302
343,108.0200,108.0200,108.0200,108.0200,805
344,108.0300,108.0300,108.0150,108.0300,1100
345,108.0300,108.0400,108.0300,108.0400,800
346,108.0500,108.0700,108.0500,108.0700,1300
347,108.0800,108.0800,108.0800,108.0800,700
348,108.0800,108.0800,108.0700,108.0700,2254
349,108.0800,108.1100,108.0800,108.1000,3121
350,108.0900,108.1000,108.0800,108.0800,800
351,108.1000,108.1000,108.1000,108.1000,730
352,108.1100,108.1100,108.0800,108.0800,2125
353,108.0950,108.0950,108.0950,108.0950,600
354,108.0800,108.1000,108.0800,108.1000,3730
355,108.0900,108.1000,108.0800,108.1000,2688
356,108.0803,108.1000,108.0800,108.0950,3579
357,108.0800,108.1000,108.0800,108.0800,1400
358,108.0800,108.1400,108.0800,108.1400,2800
359,108.1400,108.1600,108.1300,108.1600,2000
360,108.1600,108.1600,108.1600,108.1600,700
361,108.1600,108.1700,108.1400,108.1600,1600
362,108.1700,108.1900,108.1700,108.1900,1721
364,108.2000,108.2000,108.1800,108.2000,2928
365,108.2000,108.2000,108.1700,108.1700,2100
366,108.1900,108.1900,108.1600,108.1650,3524
367,108.1600,108.1700,108.1500,108.1500,1441
368,108.1550,108.1750,108.1550,108.1750,3535
369,108.1600,108.1600,108.1200,108.1200,3716
370,108.1229,108.1229,108.0900,108.0900,5902
371,108.0900,108.1000,108.0600,108.0600,3016
372,108.0400,108.0403,108.0300,108.0300,2067
373,108.0300,108.0400,108.0100,108.0400,2712
374,108.0400,108.0400,108.0200,108.0300,3384
375,108.0300,108.0400,108.0250,108.0300,5063
376,108.0300,108.1200,108.0200,108.1200,7242
377,108.1200,108.1200,108.0600,108.0600,5918
378,108.0600,108.0700,108.0500,108.0500,2713
379,108.0500,108.0500,108.0300,108.0300,2500
380,108.0400,108.0500,108.0300,108.0300,1300
381,108.0400,108.0400,107.9800,107.9800,5299
382,107.9900,108.0000,107.9800,108.0000,2114
383,108.0100,108.0100,107.9800,107.9800,1557
384,107.9700,107.9700,107.9400,107.9400,1100
385,107.9300,107.9300,107.9000,107.9100,2995
386,107.9100,107.9100,107.8700,107.8800,4079
387,107.8700,107.8700,107.8500,107.8500,3430
388,107.8500,107.8700,107.8500,107.8700,2409
389,107.8600,107.8600,107.7900,107.8000,9353
390,107.8000,107.8600,107.8000,107.8400,15774