EOG,EOG Resources,Energy,3,Oil & Gas Exploration & Production,52952800553,3440848
a1500384600,92.25,92.25,92.25,92.25,38546
1,92.28,92.35,92.2228,92.35,2500
2,92.36,92.419,92.2667,92.2667,2200
3,92.3,92.37,92.07,92.36,5921
4,92.32,92.32,92.17,92.26,1229
5,92.28,92.35,92.28,92.34,2186
6,92.18,92.35,92.18,92.3499,3837
7,92.1873,92.29,92.16,92.16,2400
8,92.37,92.37,92.185,92.24,3500
9,92.36,92.45,92.36,92.3664,1200
10,92.388,92.43,92.29,92.33,5200
11,92.1968,92.37,92.19,92.35,3200
12,92.28,92.28,92.24,92.28,1200
13,92.36,92.36,92.27,92.28,700
14,92.31,92.41,92.31,92.32,5700
15,92.31,92.34,92.28,92.29,1700
16,92.31,92.35,92.23,92.35,9100
17,92.245,92.29,92.24,92.29,3800
18,92.28,92.3,92.22,92.29,7089
19,92.26,92.28,92.19,92.26,11355
20,92.28,92.28,92.215,92.28,7230
21,92.23,92.296,92.23,92.29,2105
22,92.31,92.31,92.205,92.24,3661
23,92.38,92.38,92.3,92.31,1134
24,92.39,92.39,92.32,92.33,5450
25,92.33,92.4,92.31,92.34,3887
26,92.245,92.37,92.22,92.35,5381
27,92.3,92.31,92.225,92.29,2550
28,92.24,92.31,92.24,92.27,1400
29,92.255,92.31,92.232,92.24,11447
30,92.345,92.37,92.245,92.245,1800
31,92.3,92.345,92.3,92.33,2300
32,92.33,92.34,92.27,92.3,4300
33,92.2,92.33,92.19,92.3,5800
34,92.28,92.29,92.19,92.21,2765
35,92.26,92.3,92.22,92.3,6234
36,92.245,92.26,92.23,92.24,4400
37,92.28,92.28,92.23,92.24,2400
38,92.26,92.3,92.245,92.29,3100
39,92.32,92.32,92.25,92.25,1200
40,92.33,92.36,92.2977,92.2977,8163
41,92.35,92.37,92.32,92.37,10545
42,92.35,92.39,92.32,92.34,5300
43,92.35,92.38,92.34,92.36,1228
44,92.33,92.345,92.28,92.32,5550
45,92.33,92.37,92.31,92.35,4805
46,92.317,92.35,92.31,92.33,2475
47,92.29,92.3,92.27,92.29,9944
48,92.22,92.29,92.21,92.29,6600
49,92.2,92.22,92.18,92.22,4300
50,92.14,92.2,92.12,92.19,12450
51,92.15,92.16,92.115,92.15,11700
52,92.1,92.15,92.1,92.15,11737
53,92.11,92.14,92.11,92.11,5629
54,92.11,92.14,92.11,92.13,1100
55,92.15,92.15,92.1,92.105,2928
56,92.11,92.13,92.09,92.12,5200
57,92.12,92.12,92.08,92.12,3944
58,92.09,92.13,92.09,92.13,2200
59,92.09,92.1112,92.09,92.1,2222
60,92.15,92.16,92.085,92.09,14288
61,92.21,92.21,92.14,92.14,6130
62,92.32,92.32,92.22,92.24,2100
63,92.33,92.33,92.26,92.29,1500
64,92.38,92.38,92.32,92.335,1450
65,92.345,92.39,92.33,92.355,1200
66,92.36,92.38,92.32,92.33,4300
67,92.31,92.37,92.29,92.37,2810
68,92.3,92.3322,92.3,92.32,4459
69,92.29,92.3,92.25,92.27,3707
70,92.22,92.285,92.22,92.27,6620
71,92.225,92.24,92.215,92.225,2950
72,92.23,92.26,92.1875,92.23,10937
73,92.14,92.215,92.12,92.2,15510
74,92.24,92.24,92.14,92.15,4184
75,92.15,92.23,92.15,92.2,4600
76,92.17,92.17,92.15,92.17,4025
77,92.23,92.28,92.18,92.18,8140
78,92.19,92.25,92.19,92.25,2898
79,92.16,92.19,92.15,92.17,4802
80,92.21,92.24,92.15,92.15,15200
81,92.12,92.23,92.12,92.1558,10890
82,92.145,92.17,92.13,92.15,12767
83,92.2,92.2,92.12,92.14,5614
84,92.19,92.27,92.19,92.2,2360
85,92.2,92.2,92.18,92.195,2950
86,92.3,92.3,92.21,92.21,2381
87,92.245,92.31,92.23,92.28,3928
88,92.2606,92.27,92.21,92.24,7609
89,92.33,92.33,92.25,92.27,1400
90,92.34,92.356,92.29,92.32,3000
91,92.38,92.38,92.33,92.36,6105
92,92.375,92.42,92.36,92.39,2700
93,92.36,92.39,92.36,92.375,1150
94,92.35,92.38,92.33,92.37,7517
95,92.37,92.37,92.33,92.37,800
96,92.37,92.38,92.32,92.345,9129
97,92.39,92.39,92.35,92.38,2900
98,92.33,92.4,92.32,92.385,11000
99,92.32,92.35,92.31,92.33,2475
100,92.32,92.34,92.3148,92.3148,2115
101,92.35,92.35,92.3,92.315,2125
102,92.32,92.35,92.315,92.32,5439
105,92.17,92.19,92.15,92.19,2100
106,92.18,92.18,92.16,92.16,1600
107,92.15,92.17,92.135,92.17,3998
108,92.15,92.1625,92.13,92.16,6278
109,92.15,92.15,92.11,92.14,2879
110,92.13,92.16,92.1164,92.14,4000
111,92.14,92.15,92.11,92.13,2400
112,92.15,92.15,92.1,92.12,7821
113,92.22,92.25,92.13,92.13,5220
114,92.16,92.2399,92.16,92.2399,3372
115,92.05,92.17,92.04,92.14,3810
116,92.07,92.09,92.04,92.06,5128
117,91.9976,92.035,91.97,92.035,6650
118,91.975,92.01,91.97,91.98,4071
119,92.01,92.03,91.95,91.97,6950
120,92.02,92.05,92,92,3072
121,92.05,92.05,92.02,92.03,500
122,92.02,92.05,92.02,92.03,1600
123,91.99,92.01,91.98,91.98,8321
124,92,92.005,91.97,92,6800
125,91.985,92,91.97,91.99,2880
126,91.93,92,91.93,91.99,18676
127,91.91,91.96,91.9,91.93,4627
128,91.79,91.89,91.79,91.89,3520
129,91.77,91.8,91.76,91.8,6608
130,91.71,91.785,91.64,91.785,16601
131,91.75,91.75,91.71,91.71,1400
132,91.83,91.85,91.74,91.74,2100
133,91.9,91.92,91.83,91.84,5630
134,91.94,91.97,91.92,91.94,4400
135,91.95,91.98,91.94,91.96,7315
136,91.935,92.02,91.935,91.96,3200
137,91.95,91.95,91.94,91.95,520
138,91.88,91.96,91.88,91.95,2000
139,91.9,91.91,91.86,91.87,1700
140,91.875,91.9,91.87,91.89,2987
141,91.91,91.91,91.86,91.875,2856
142,91.88,91.91,91.88,91.91,2172
143,91.855,91.89,91.855,91.89,4072
144,91.82,91.86,91.8,91.855,10676
145,91.77,91.84,91.75,91.84,8000
146,91.705,91.75,91.69,91.75,4240
147,91.75,91.76,91.68,91.69,4972
148,91.76,91.76,91.71,91.74,3900
149,91.75,91.77,91.73,91.76,1100
150,91.74,91.74,91.72,91.7356,4800
151,91.79,91.79,91.69,91.74,9274
152,91.83,91.83,91.75,91.75,4907
153,91.77,91.85,91.77,91.85,2664
154,91.81,91.81,91.81,91.81,341
155,91.815,91.815,91.815,91.815,100
156,91.83,91.83,91.79,91.82,800
157,91.82,91.85,91.82,91.8475,951
158,91.85,91.85,91.83,91.84,900
159,91.82,91.835,91.82,91.83,300
160,91.86,91.86,91.815,91.815,700
161,91.82,91.85,91.82,91.84,4800
162,91.835,91.85,91.83,91.85,2802
163,91.83,91.84,91.82,91.83,1300
164,91.81,91.83,91.79,91.83,13340
165,91.82,91.83,91.8,91.8211,1212
166,91.85,91.85,91.815,91.82,1246
167,91.865,91.89,91.85,91.87,800
168,91.82,91.88,91.82,91.88,1000
169,91.88,91.88,91.82,91.82,700
170,91.86,91.89,91.84,91.84,600
171,91.82,91.87,91.81,91.87,1000
172,91.9,91.9,91.82,91.82,4221
173,91.9,91.9,91.875,91.875,600
174,91.93,91.93,91.92,91.92,545
175,91.93,91.94,91.92,91.925,1700
176,91.88,91.91,91.88,91.91,1903
177,91.86,91.88,91.84,91.88,2000
178,91.86,91.87,91.85,91.85,600
179,91.85,91.865,91.85,91.865,1800
180,91.79,91.855,91.79,91.85,1300
181,91.85,91.85,91.78,91.78,1800
182,91.82,91.85,91.82,91.84,1437
183,91.82,91.825,91.82,91.82,1500
184,91.8,91.83,91.8,91.83,700
185,91.75,91.8,91.75,91.8,2150
186,91.74,91.7425,91.695,91.73,2300
187,91.75,91.75,91.69,91.71,3400
189,91.7,91.72,91.685,91.7,4769
190,91.75,91.75,91.7,91.7,15542
191,91.75,91.76,91.71,91.76,4650
192,91.72,91.76,91.72,91.76,1900
193,91.73,91.75,91.72,91.72,3700
194,91.73,91.78,91.73,91.75,2100
195,91.75,91.75,91.744,91.75,300
196,91.73,91.7425,91.73,91.73,600
197,91.7001,91.729,91.7001,91.72,1200
198,91.72,91.74,91.7,91.7,6950
199,91.7,91.73,91.675,91.72,2901
200,91.71,91.71,91.69,91.7,800
201,91.7,91.7,91.69,91.69,750
202,91.72,91.72,91.7,91.7,1200
203,91.73,91.73,91.69,91.72,4850
204,91.73,91.73,91.7,91.71,3400
205,91.7,91.73,91.7,91.73,2100
206,91.72,91.72,91.7,91.72,992
207,91.7,91.73,91.7,91.7,6100
208,91.72,91.73,91.7,91.71,2377
209,91.73,91.73,91.73,91.73,100
210,91.75,91.85,91.72,91.74,10032
211,91.77,91.77,91.76,91.76,400
212,91.73,91.74,91.73,91.74,200
213,91.77,91.78,91.751,91.7612,2600
214,91.78,91.78,91.73,91.76,2500
215,91.76,91.795,91.75,91.75,1300
216,91.78,91.79,91.77,91.77,900
217,91.78,91.78,91.77,91.77,1100
218,91.78,91.78,91.755,91.76,1100
219,91.75,91.75,91.71,91.72,2700
220,91.71,91.725,91.705,91.71,1500
221,91.71,91.71,91.67,91.7,3800
222,91.71,91.72,91.7,91.71,2400
223,91.715,91.74,91.71,91.74,1570
224,91.71,91.73,91.7,91.705,5100
225,91.665,91.7,91.66,91.695,4886
226,91.67,91.67,91.63,91.67,6000
227,91.65,91.66,91.61,91.65,6859
228,91.63,91.64,91.63,91.64,500
229,91.62,91.625,91.61,91.6222,1300
230,91.64,91.64,91.6,91.615,1200
231,91.56,91.63,91.56,91.62,3600
232,91.61,91.61,91.54,91.57,6950
233,91.56,91.56,91.55,91.55,300
234,91.55,91.55,91.53,91.545,1000
235,91.55,91.55,91.53,91.55,6516
236,91.535,91.54,91.52,91.54,3480
237,91.53,91.549,91.51,91.535,6403
238,91.515,91.52,91.51,91.52,1077
239,91.53,91.53,91.5199,91.52,800
240,91.56,91.56,91.515,91.53,3657
241,91.55,91.56,91.54,91.54,1200
242,91.6,91.6,91.5301,91.545,4260
243,91.5701,91.6,91.56,91.58,5750
244,91.54,91.63,91.54,91.6,3600
245,91.52,91.53,91.51,91.53,1200
246,91.49,91.5272,91.49,91.51,891
247,91.44,91.47,91.43,91.47,1200
248,91.43,91.4512,91.43,91.44,800
249,91.35,91.42,91.35,91.42,2023
250,91.37,91.39,91.37,91.37,2000
251,91.34,91.36,91.34,91.36,1101
252,91.27,91.33,91.27,91.33,1900
253,91.27,91.28,91.25,91.27,2500
254,91.255,91.27,91.25,91.27,1601
255,91.3,91.3,91.26,91.26,2700
256,91.33,91.35,91.31,91.31,3300
257,91.37,91.37,91.325,91.325,1715
258,91.345,91.37,91.34,91.37,2423
259,91.31,91.34,91.31,91.34,4200
260,91.37,91.37,91.31,91.32,3500
261,91.375,91.39,91.365,91.37,700
262,91.35,91.36,91.35,91.36,700
263,91.4,91.41,91.34,91.36,8901
264,91.38,91.4,91.38,91.4,2960
265,91.34,91.385,91.33,91.385,2000
266,91.3393,91.345,91.33,91.34,1200
267,91.32,91.33,91.31,91.33,1800
268,91.34,91.34,91.31,91.31,1500
269,91.4029,91.405,91.35,91.35,1913
272,91.4,91.4,91.39,91.39,450
273,91.45,91.45,91.38,91.38,7588
274,91.47,91.4775,91.43,91.445,3445
275,91.5,91.5,91.46,91.47,8446
276,91.48,91.51,91.46,91.51,3100
277,91.47,91.485,91.47,91.485,1800
278,91.49,91.51,91.49,91.5,1250
279,91.4785,91.48,91.47,91.48,974
280,91.5,91.5,91.47,91.47,1500
281,91.455,91.49,91.45,91.49,945
282,91.48,91.5,91.43,91.45,1910
283,91.52,91.52,91.47,91.47,3184
284,91.53,91.55,91.5,91.5,900
285,91.5,91.54,91.5,91.52,2152
286,91.48,91.5,91.475,91.49,4884
287,91.47,91.49,91.46,91.47,1078
288,91.55,91.55,91.46,91.48,9378
289,91.57,91.57,91.52,91.55,2500
290,91.54,91.57,91.54,91.56,1607
291,91.53,91.53,91.5,91.51,807
292,91.535,91.55,91.535,91.54,1300
293,91.57,91.58,91.54,91.55,2550
294,91.575,91.575,91.575,91.575,100
295,91.58,91.61,91.56,91.589,2222
296,91.56,91.58,91.56,91.58,1338
297,91.585,91.6,91.58,91.58,700
298,91.57,91.5796,91.57,91.5796,1071
299,91.6,91.61,91.58,91.58,1700
300,91.64,91.65,91.59,91.59,7067
301,91.65,91.65,91.64,91.64,200
303,91.66,91.66,91.66,91.66,400
304,91.72,91.72,91.66,91.66,5136
305,91.73,91.78,91.72,91.73,3356
306,91.6803,91.72,91.68,91.72,1063
307,91.66,91.68,91.66,91.68,909
308,91.675,91.68,91.65,91.67,1000
309,91.62,91.65,91.62,91.65,900
310,91.61,91.62,91.61,91.62,700
311,91.636,91.636,91.6,91.6,1200
312,91.61,91.63,91.61,91.63,800
313,91.64,91.64,91.6,91.6,1265
314,91.61,91.65,91.61,91.63,1800
315,91.61,91.625,91.61,91.625,200
316,91.57,91.64,91.551,91.64,2687
317,91.58,91.6,91.56,91.58,2144
318,91.597,91.6,91.57,91.58,900
319,91.57,91.6,91.57,91.58,1400
320,91.57,91.57,91.56,91.57,800
321,91.57,91.6,91.565,91.58,3000
322,91.57,91.57,91.56,91.57,653
323,91.59,91.59,91.57,91.57,300
324,91.6,91.605,91.58,91.6,1800
325,91.62,91.63,91.6,91.6,9900
326,91.59,91.62,91.57,91.615,4727
327,91.59,91.6,91.58,91.59,3500
328,91.595,91.6,91.58,91.59,12278
329,91.59,91.6,91.59,91.6,11143
330,91.6,91.61,91.59,91.59,2650
331,91.59,91.61,91.59,91.595,3451
332,91.63,91.65,91.59,91.6,5894
333,91.62,91.63,91.61,91.62,8299
334,91.615,91.629,91.61,91.62,3275
335,91.615,91.615,91.61,91.615,3280
336,91.61,91.63,91.61,91.62,6317
337,91.7,91.7,91.6,91.6,4737
338,91.72,91.72,91.68,91.69,3000
339,91.74,91.755,91.72,91.72,6846
340,91.72,91.74,91.71,91.74,2000
341,91.74,91.74,91.72,91.72,1900
342,91.713,91.74,91.713,91.74,2807
343,91.72,91.74,91.7,91.72,6150
344,91.75,91.75,91.7,91.715,4300
345,91.75,91.77,91.73,91.75,13800
346,91.75,91.76,91.74,91.7442,7912
347,91.87,91.89,91.76,91.76,6600
348,91.86,91.9,91.86,91.9,2780
349,91.86,91.88,91.86,91.88,800
350,91.83,91.87,91.82,91.87,1532
351,91.8,91.85,91.8,91.84,2955
352,91.81,91.81,91.78,91.8,1600
353,91.7778,91.81,91.77,91.795,1505
354,91.79,91.79,91.77,91.78,4185
355,91.83,91.83,91.789,91.789,3078
356,91.75,91.84,91.75,91.84,26200
357,91.77,91.77,91.74,91.74,11265
358,91.76,91.78,91.76,91.77,2438
359,91.76,91.76,91.741,91.75,1147
360,91.76,91.78,91.75,91.75,1300
361,91.77,91.8,91.74,91.74,4732
362,91.77,91.78,91.76,91.76,4100
363,91.77,91.78,91.76,91.77,2100
364,91.79,91.8,91.77,91.77,93448
365,91.79,91.8,91.77,91.8,6258
366,91.81,91.84,91.79,91.79,3941
367,91.8,91.81,91.78,91.8,2500
368,91.8,91.8,91.78,91.795,6228
369,91.78,91.8,91.77,91.8,2486
370,91.78,91.8,91.75,91.79,14380
371,91.74,91.79,91.72,91.78,9600
372,91.72,91.75,91.72,91.735,6969
373,91.73,91.74,91.68,91.74,9142
374,91.73,91.74,91.72,91.735,5000
375,91.74,91.75,91.7,91.72,13431
376,91.75,91.75,91.72,91.72,7117
377,91.74,91.745,91.72,91.74,9262
378,91.75,91.75,91.71,91.74,22969
379,91.74,91.745,91.73,91.74,3791
380,91.735,91.74,91.72,91.735,4100
381,91.69,91.735,91.69,91.735,3722
382,91.6942,91.705,91.69,91.7,6523
383,91.6793,91.7,91.6793,91.69,7048
384,91.685,91.69,91.68,91.68,3397
385,91.695,91.7,91.68,91.685,7264
386,91.68,91.695,91.67,91.69,10100
387,91.7301,91.74,91.68,91.685,7119
388,91.75,91.75,91.74,91.74,7649
389,91.72,91.75,91.71,91.75,14961
390,91.71,91.75,91.7,91.72,33248
