EOG,EOG Resources,Energy,3,Oil & Gas Exploration & Production,48315081972,3211729
a1504099800,82.78,82.92,82.54,82.92,30870
1,82.74,82.86,82.561,82.58,3650
2,82.645,82.72,82.64,82.695,2300
3,82.32,82.6342,82.32,82.6342,7670
4,82.43,82.49,82.34,82.37,4943
5,82.45,82.47,82.38,82.41,1800
6,82.51,82.53,82.41,82.5,10186
7,82.71,82.71,82.4934,82.4934,6070
8,82.74,82.86,82.69,82.72,6713
9,82.815,82.815,82.72,82.72,3410
10,82.78,82.84,82.73,82.84,3600
11,82.75,82.78,82.74,82.76,1454
12,82.8,82.8,82.72,82.7449,2927
13,82.85,82.85,82.78,82.78,3503
14,82.83,82.87,82.83,82.84,978
15,82.95,82.95,82.84,82.88,13537
16,82.87,82.96,82.8124,82.96,4962
17,82.82,82.87,82.8,82.87,5650
18,82.94,82.94,82.85,82.85,3805
19,82.91,82.95,82.84,82.95,7381
20,82.92,82.92,82.85,82.895,7400
21,82.865,82.93,82.82,82.91,6864
22,82.87,82.93,82.85,82.85,5278
23,82.92,82.92,82.81,82.88,4500
24,82.83,82.91,82.82,82.9,1900
25,82.875,82.9,82.79,82.82,2961
26,82.925,82.94,82.89,82.89,2500
27,82.8901,82.94,82.89,82.91,2502
28,82.9261,82.94,82.8939,82.8939,2237
29,82.96,82.99,82.93,82.94,4488
30,82.96,82.97,82.9,82.97,4874
31,82.895,82.97,82.88,82.96,12839
32,82.925,82.93,82.88,82.91,3727
33,82.87,82.93,82.87,82.92,3614
34,82.93,82.94,82.88,82.88,4721
35,82.88,82.93,82.88,82.91,3364
36,82.875,82.9,82.87,82.885,3990
37,82.84,82.88,82.83,82.87,7058
38,82.84,82.85,82.83,82.85,2700
39,82.87,82.87,82.83,82.83,7600
40,82.86,82.9,82.86,82.88,5661
41,82.855,82.88,82.855,82.87,4700
42,82.86,82.88,82.85,82.855,3600
43,82.89,82.9,82.82,82.87,7097
44,82.88,82.88,82.84,82.87,9525
45,82.94,82.95,82.87,82.87,10074
46,82.94,82.96,82.93,82.945,2485
47,82.93,82.94,82.88,82.91,11097
48,83.01,83.02,82.945,82.95,4073
49,82.98,83,82.96,83,4300
50,83.0001,83.01,82.98,82.98,825
51,83.04,83.05,83.025,83.04,1500
52,83.02,83.04,83.02,83.04,2587
53,83.131,83.135,83.02,83.04,4450
54,83.17,83.17,83.11,83.12,2034
55,83.19,83.194,83.16,83.18,1412
56,83.15,83.19,83.15,83.18,4900
57,83.16,83.16,83.11,83.14,6255
58,83.15,83.17,83.13,83.16,9034
59,83.13,83.1699,83.11,83.155,11540
60,83.17,83.2,83.12,83.12,4886
61,83.1,83.23,83.1,83.21,3898
62,83.11,83.13,83.07,83.09,6307
63,83.09,83.11,83.03,83.1,5131
64,83.1,83.17,83.1,83.11,2100
65,83.17,83.17,83.11,83.12,3577
66,83.13,83.16,83.13,83.16,1700
67,83.19,83.22,83.14,83.14,4300
68,83.1,83.16,83.1,83.16,6623
69,83.08,83.12,83.06,83.09,15088
70,83.12,83.18,83.07,83.085,3500
71,83.1,83.13,83.1,83.13,2400
72,83.07,83.09,83.07,83.09,1400
73,83.18,83.18,83.07,83.071,5310
74,83.2,83.26,83.19,83.2,3284
75,83.31,83.33,83.22,83.22,1800
76,83.345,83.41,83.31,83.31,3049
77,83.34,83.3542,83.32,83.3542,605
78,83.28,83.34,83.27,83.34,2575
79,83.21,83.2424,83.21,83.24,1600
80,83.23,83.23,83.18,83.21,1609
81,83.22,83.26,83.22,83.22,1300
82,83.21,83.237,83.2,83.21,1185
83,83.205,83.22,83.195,83.2,1407
84,83.19,83.24,83.18,83.2,2638
85,83.14,83.175,83.13,83.17,5365
86,83.225,83.225,83.12,83.12,4134
87,83.16,83.225,83.13,83.225,3159
88,83.12,83.16,83.12,83.16,2700
89,83.15,83.19,83.12,83.12,1740
90,83.21,83.22,83.16,83.18,1900
91,83.19,83.2,83.16,83.19,1115
92,83.1,83.175,83.1,83.175,2600
93,83.14,83.14,83.0775,83.09,5161
94,83.19,83.19,83.11,83.13,4700
95,83.19,83.19,83.1201,83.16,4160
96,83.24,83.2599,83.18,83.19,3221
97,83.18,83.22,83.18,83.22,1900
98,83.18,83.21,83.135,83.19,4524
99,83.16,83.18,83.125,83.14,1600
100,83.13,83.15,83.13,83.15,617
101,83.23,83.23,83.11,83.13,5086
102,83.21,83.23,83.21,83.21,600
103,83.18,83.23,83.16,83.23,2889
104,83.22,83.22,83.14,83.16,2915
105,83.25,83.25,83.19,83.19,5400
106,83.24,83.26,83.24,83.26,3385
107,83.23,83.23,83.2,83.23,3494
108,83.23,83.24,83.19,83.23,7210
109,83.23,83.25,83.22,83.23,3876
110,83.23,83.24,83.21,83.22,5611
111,83.185,83.23,83.18,83.2253,4600
112,83.19,83.21,83.17,83.19,4100
113,83.2,83.2,83.16,83.17,2600
114,83.1854,83.2,83.17,83.18,801
115,83.22,83.22,83.18,83.18,3113
116,83.26,83.26,83.215,83.22,2650
117,83.25,83.2533,83.23,83.25,5426
118,83.31,83.31,83.24,83.24,3184
119,83.34,83.35,83.3027,83.3027,2850
120,83.42,83.42,83.35,83.35,6116
121,83.45,83.46,83.43,83.43,6800
122,83.5,83.52,83.46,83.46,3259
123,83.57,83.571,83.51,83.51,1011
124,83.55,83.59,83.55,83.57,2100
125,83.56,83.56,83.525,83.54,2197
126,83.58,83.58,83.55,83.55,4450
127,83.62,83.63,83.5749,83.59,6550
128,83.68,83.68,83.63,83.64,1800
129,83.64,83.68,83.64,83.66,3300
130,83.64,83.64,83.6,83.62,2200
131,83.65,83.67,83.63,83.6486,3300
132,83.755,83.76,83.65,83.65,2392
133,83.765,83.8,83.75,83.75,11011
134,83.8,83.81,83.76,83.76,3250
135,83.77,83.82,83.77,83.8,4500
136,83.8025,83.8025,83.771,83.785,3750
137,83.81,83.83,83.8,83.805,9298
138,83.8,83.8,83.79,83.8,300
139,83.79,83.82,83.79,83.82,7400
140,83.74,83.8,83.74,83.8,6016
141,83.82,83.83,83.75,83.75,3620
142,83.86,83.87,83.83,83.83,3445
143,83.86,83.88,83.83,83.8441,5906
144,83.81,83.9,83.8,83.88,5605
145,83.83,83.8599,83.82,83.82,3985
146,83.81,83.83,83.8,83.82,2800
147,83.94,83.94,83.81,83.81,5900
148,83.95,83.96,83.93,83.94,2100
149,83.93,83.96,83.91,83.95,3300
150,83.94,83.95,83.909,83.93,3800
151,83.92,83.94,83.91,83.9214,20100
152,83.935,83.94,83.92,83.925,15794
153,83.93,83.98,83.88,83.94,28616
154,83.915,83.93,83.88,83.93,9202
155,83.91,83.92,83.89,83.915,10854
156,83.91,83.93,83.9,83.93,2500
157,83.87,83.92,83.87,83.9141,3800
158,83.95,83.95,83.88,83.88,1700
159,83.96,83.96,83.91,83.95,6001
160,83.835,83.96,83.82,83.95,35777
161,83.74,83.83,83.74,83.83,12815
162,83.73,83.75,83.72,83.75,6200
163,83.7113,83.72,83.7,83.72,3846
164,83.7,83.7,83.69,83.7,1400
165,83.642,83.7,83.642,83.69,4806
166,83.66,83.66,83.61,83.66,3200
167,83.65,83.665,83.63,83.66,4403
168,83.71,83.71,83.65,83.65,2347
169,83.79,83.82,83.711,83.715,23334
170,83.85,83.85,83.78,83.78,6203
171,83.76,83.85,83.76,83.85,8320
172,83.66,83.75,83.66,83.75,2900
173,83.71,83.71,83.65,83.65,2912
174,83.66,83.69,83.66,83.69,1600
175,83.64,83.66,83.6235,83.66,1948
176,83.6025,83.64,83.5913,83.64,2662
177,83.595,83.61,83.58,83.58,300
178,83.64,83.66,83.6,83.61,7877
179,83.61,83.65,83.61,83.64,2642
180,83.66,83.66,83.64,83.64,2882
181,83.66,83.67,83.66,83.67,400
182,83.69,83.72,83.65,83.65,3400
183,83.7,83.7,83.7,83.7,105
184,83.67,83.7,83.66,83.6999,2200
185,83.66,83.66,83.639,83.65,2370
186,83.63,83.6587,83.63,83.6587,1033
187,83.631,83.635,83.63,83.63,450
188,83.64,83.64,83.63,83.6364,772
189,83.63,83.64,83.63,83.64,1150
190,83.6,83.636,83.59,83.63,3943
191,83.57,83.61,83.57,83.61,1550
192,83.551,83.56,83.55,83.56,400
193,83.523,83.5531,83.523,83.55,3225
194,83.5,83.52,83.5,83.52,3080
195,83.45,83.51,83.45,83.51,3119
196,83.45,83.47,83.45,83.45,2872
197,83.4737,83.4843,83.44,83.44,3908
198,83.48,83.48,83.48,83.48,520
199,83.54,83.54,83.47,83.48,2756
200,83.6008,83.6044,83.55,83.55,2461
201,83.59,83.61,83.59,83.59,3150
202,83.57,83.61,83.57,83.6,3813
203,83.56,83.58,83.56,83.5601,1968
204,83.58,83.58,83.55,83.55,800
205,83.57,83.57,83.57,83.57,100
206,83.505,83.57,83.5,83.56,2680
207,83.5,83.51,83.48,83.495,2997
208,83.46,83.495,83.46,83.495,3365
209,83.465,83.48,83.445,83.445,2050
210,83.51,83.51,83.43,83.45,4000
211,83.545,83.55,83.51,83.52,4072
212,83.5231,83.545,83.51,83.53,3129
213,83.51,83.5225,83.5,83.5225,2100
214,83.555,83.56,83.51,83.51,3600
215,83.57,83.62,83.57,83.57,5011
216,83.6,83.6,83.56,83.56,1701
217,83.62,83.62,83.59,83.61,2270
219,83.61,83.62,83.6,83.6,2513
220,83.61,83.62,83.61,83.62,700
221,83.605,83.61,83.59,83.6,2755
222,83.59,83.61,83.59,83.6,1300
223,83.62,83.65,83.58,83.58,4249
224,83.57,83.64,83.57,83.61,4279
225,83.57,83.585,83.57,83.57,1000
227,83.56,83.5764,83.55,83.57,3417
229,83.56,83.57,83.56,83.57,2934
230,83.56,83.575,83.56,83.57,1500
231,83.51,83.575,83.51,83.575,4501
232,83.5,83.52,83.5,83.52,700
233,83.48,83.495,83.48,83.49,900
234,83.51,83.51,83.49,83.49,2836
235,83.52,83.55,83.52,83.53,2199
236,83.57,83.57,83.5,83.51,2353
237,83.66,83.66,83.59,83.59,1768
238,83.69,83.7,83.66,83.66,1011
239,83.76,83.76,83.68,83.6825,3673
240,83.69,83.7613,83.69,83.7613,1815
241,83.59,83.71,83.56,83.7032,5916
242,83.61,83.62,83.56,83.6,5847
243,83.6,83.605,83.58,83.59,1600
244,83.55,83.5825,83.52,83.57,2276
245,83.53,83.55,83.52,83.53,800
246,83.47,83.525,83.43,83.52,5110
247,83.45,83.465,83.44,83.465,1345
248,83.47,83.47,83.45,83.46,2400
249,83.41,83.44,83.41,83.43,2341
250,83.44,83.45,83.4001,83.4001,6522
251,83.36,83.44,83.36,83.44,3844
252,83.375,83.38,83.3411,83.35,1910
253,83.3666,83.375,83.3606,83.3606,1350
254,83.38,83.4,83.36,83.36,6362
255,83.38,83.405,83.38,83.4,1700
256,83.41,83.42,83.4,83.4,1100
257,83.39,83.39,83.39,83.39,1200
258,83.3925,83.42,83.38,83.4,2076
259,83.4,83.4,83.4,83.4,200
260,83.385,83.39,83.385,83.39,800
261,83.39,83.39,83.38,83.38,1925
262,83.37,83.39,83.37,83.38,6746
263,83.38,83.41,83.37,83.37,4617
265,83.4,83.4038,83.38,83.39,2326
266,83.41,83.41,83.4,83.41,1400
267,83.41,83.419,83.4,83.419,423
268,83.39,83.42,83.38,83.42,2200
269,83.37,83.39,83.37,83.39,2414
270,83.36,83.41,83.36,83.37,4019
271,83.38,83.38,83.35,83.35,1194
272,83.3715,83.4,83.37,83.37,4200
273,83.39,83.4,83.39,83.4,2275
274,83.39,83.39,83.38,83.38,969
275,83.48,83.48,83.4,83.4,6935
276,83.45,83.46,83.44,83.46,2137
277,83.4599,83.47,83.4462,83.45,1960
278,83.48,83.48,83.46,83.46,2251
279,83.47,83.47,83.45,83.47,3630
280,83.49,83.49,83.46,83.47,3520
281,83.51,83.51,83.48,83.48,1250
282,83.49,83.49,83.48,83.49,2200
283,83.49,83.49,83.48,83.48,1735
284,83.49,83.5,83.48,83.48,3443
285,83.48,83.5,83.45,83.49,6323
286,83.43,83.48,83.43,83.48,11092
287,83.42,83.42,83.4,83.42,2750
288,83.39,83.395,83.39,83.395,930
289,83.4,83.4,83.38,83.38,4828
290,83.44,83.44,83.41,83.41,1328
291,83.44,83.44,83.43,83.44,3621
292,83.44,83.44,83.43,83.44,2871
293,83.49,83.49,83.435,83.435,3848
294,83.5,83.5,83.49,83.5,1527
295,83.51,83.51,83.4992,83.4992,1150
296,83.46,83.51,83.4551,83.51,4621
297,83.475,83.48,83.44,83.45,15859
298,83.47,83.48,83.45,83.47,6566
299,83.4839,83.5,83.46,83.465,2300
300,83.5025,83.51,83.49,83.5,1656
301,83.51,83.51,83.49,83.49,4100
302,83.53,83.53,83.5,83.51,3179
303,83.54,83.56,83.54,83.54,3401
304,83.52,83.53,83.49,83.53,3722
305,83.52,83.525,83.5121,83.525,1000
306,83.55,83.55,83.52,83.53,3450
307,83.575,83.575,83.55,83.55,1200
308,83.545,83.56,83.53,83.56,2549
309,83.53,83.55,83.53,83.55,1800
310,83.5,83.54,83.49,83.53,4184
311,83.52,83.52,83.49,83.5,2634
312,83.52,83.53,83.52,83.52,800
313,83.49,83.51,83.49,83.51,4400
314,83.5,83.5,83.49,83.49,1882
315,83.5,83.51,83.49,83.5,1250
316,83.5,83.5,83.49,83.5,7770
317,83.49,83.51,83.49,83.4987,992
318,83.49,83.51,83.49,83.5083,1371
319,83.5,83.51,83.49,83.49,6486
320,83.59,83.59,83.51,83.51,4490
321,83.64,83.64,83.595,83.595,1866
322,83.665,83.67,83.6,83.63,6737
323,83.5944,83.66,83.59,83.66,3198
324,83.62,83.6394,83.56,83.59,8811
325,83.62,83.62,83.59,83.61,1400
326,83.63,83.63,83.62,83.62,1143
327,83.63,83.66,83.63,83.63,2720
328,83.61,83.63,83.61,83.63,2800
329,83.63,83.63,83.61,83.61,3000
330,83.61,83.62,83.61,83.62,1300
331,83.6,83.61,83.6,83.61,798
332,83.61,83.6125,83.6,83.6,1100
333,83.59,83.61,83.58,83.61,4833
334,83.64,83.64,83.58,83.58,4694
335,83.62,83.65,83.62,83.65,2390
336,83.61,83.63,83.6,83.63,2975
337,83.62,83.62,83.6,83.61,3259
338,83.65,83.65,83.62,83.62,2677
339,83.66,83.69,83.66,83.67,3330
340,83.66,83.66,83.64,83.66,4210
341,83.64,83.685,83.64,83.66,5850
342,83.67,83.67,83.66,83.66,1023
343,83.63,83.65,83.63,83.65,4204
344,83.62,83.65,83.62,83.64,3100
345,83.6331,83.6332,83.6248,83.6332,300
346,83.635,83.635,83.58,83.62,4700
347,83.62,83.6307,83.62,83.6307,400
348,83.62,83.65,83.62,83.64,2187
349,83.6,83.63,83.6,83.62,4890
350,83.62,83.62,83.6,83.6,2600
351,83.65,83.65,83.61,83.61,3571
352,83.64,83.65,83.63,83.64,2950
353,83.61,83.64,83.5988,83.64,5900
354,83.635,83.64,83.61,83.61,15682
355,83.64,83.65,83.63,83.635,8700
356,83.62,83.64,83.6,83.64,4270
357,83.63,83.64,83.62,83.62,7610
358,83.6425,83.65,83.635,83.64,4349
359,83.68,83.7,83.65,83.65,3669
360,83.7,83.71,83.68,83.7,6062
361,83.71,83.72,83.68,83.7,6700
362,83.7,83.72,83.7,83.7199,2100
363,83.7,83.71,83.7,83.7,2550
364,83.69,83.72,83.675,83.71,8239
365,83.7038,83.72,83.681,83.69,6400
366,83.69,83.71,83.69,83.71,4526
367,83.72,83.72,83.69,83.69,8868
368,83.68,83.71,83.67,83.71,7400
369,83.665,83.68,83.66,83.67,3484
370,83.61,83.67,83.59,83.67,6669
371,83.56,83.61,83.54,83.6,11616
372,83.58,83.58,83.54,83.56,5612
373,83.6099,83.61,83.57,83.58,4396
374,83.6,83.61,83.57,83.6,6433
375,83.65,83.66,83.61,83.61,14834
376,83.67,83.68,83.64,83.64,8928
377,83.71,83.74,83.67,83.67,6365
378,83.72,83.74,83.7,83.71,14015
379,83.72,83.74,83.71,83.72,11064
380,83.7,83.73,83.69,83.73,10714
381,83.72,83.72,83.69,83.7,13575
382,83.74,83.745,83.72,83.72,9885
383,83.685,83.73,83.685,83.73,13817
384,83.655,83.69,83.64,83.69,6224
385,83.68,83.71,83.655,83.66,13028
386,83.705,83.71,83.645,83.66,22559
387,83.66,83.71,83.65,83.71,15324
388,83.61,83.67,83.61,83.66,12422
389,83.62,83.64,83.61,83.61,18002
390,83.62,83.67,83.59,83.63,45199
