PPG,PPG Industries,Materials,8,Specialty Chemicals,26625165336,1581544
a1504099800,103.62,103.62,103.62,103.62,11968
1,103.51,103.51,103.51,103.51,100
3,103.685,103.84,103.685,103.84,700
4,103.59,103.63,103.59,103.61,900
5,103.6,103.61,103.59,103.61,300
6,103.58,103.59,103.58,103.59,200
7,103.545,103.55,103.49,103.52,500
8,103.545,103.61,103.545,103.57,500
9,103.58,103.65,103.58,103.62,1062
11,103.54,103.59,103.54,103.59,1724
12,103.54,103.57,103.49,103.57,1500
13,103.585,103.66,103.5,103.53,1925
14,103.64,103.64,103.64,103.64,100
16,103.78,103.78,103.67,103.735,3998
17,103.74,103.77,103.74,103.745,500
18,103.82,103.82,103.81,103.82,700
19,103.74,103.85,103.73,103.81,4363
20,103.74,103.75,103.71,103.71,500
21,103.68,103.71,103.6521,103.69,600
22,103.75,103.75,103.68,103.68,500
23,103.79,103.87,103.74,103.76,2600
24,103.83,103.83,103.79,103.79,300
25,103.78,103.81,103.75,103.78,2500
26,103.76,103.76,103.72,103.75,1300
27,103.765,103.79,103.73,103.73,3200
28,103.74,103.79,103.74,103.76,1942
29,103.84,103.85,103.76,103.76,1200
30,103.8167,103.8167,103.8167,103.8167,137
31,103.81,103.84,103.74,103.84,1700
32,103.8112,103.8112,103.8112,103.8112,200
33,103.79,103.82,103.79,103.795,1400
34,103.76,103.78,103.75,103.78,700
35,103.72,103.74,103.665,103.74,2326
36,103.81,103.81,103.72,103.72,1906
37,103.74,103.79,103.72,103.79,2012
38,103.735,103.74,103.723,103.723,600
39,103.77,103.77,103.76,103.76,1300
40,103.71,103.77,103.71,103.77,1000
41,103.67,103.7,103.62,103.67,5800
42,103.64,103.66,103.64,103.66,1700
43,103.53,103.64,103.53,103.62,999
44,103.5,103.58,103.5,103.53,2300
45,103.49,103.525,103.48,103.525,2609
46,103.6,103.6,103.5,103.5,1400
47,103.54,103.6,103.54,103.6,1700
48,103.49,103.55,103.49,103.55,300
49,103.51,103.53,103.51,103.53,300
50,103.51,103.51,103.5,103.51,600
51,103.56,103.56,103.46,103.47,2200
52,103.62,103.62,103.565,103.565,400
53,103.58,103.6415,103.57,103.6,3400
54,103.59,103.61,103.585,103.585,1089
55,103.59,103.6,103.59,103.59,700
56,103.56,103.57,103.5,103.57,2100
57,103.6,103.6,103.5301,103.54,1700
58,103.595,103.595,103.56,103.59,1300
59,103.5601,103.585,103.56,103.585,1000
60,103.58,103.58,103.56,103.56,1950
61,103.63,103.63,103.59,103.6,674
62,103.68,103.69,103.64,103.64,1325
63,103.76,103.77,103.71,103.71,500
64,103.8,103.8,103.78,103.78,200
65,103.75,103.8,103.745,103.79,2396
66,103.76,103.76,103.72,103.73,1100
68,103.7476,103.78,103.73,103.78,1650
69,103.71,103.73,103.69,103.73,1165
70,103.73,103.73,103.73,103.73,200
71,103.75,103.8,103.75,103.76,800
72,103.72,103.75,103.72,103.75,1100
73,103.71,103.72,103.71,103.72,300
74,103.69,103.7,103.69,103.7,500
75,103.81,103.82,103.72,103.72,1178
76,103.76,103.78,103.76,103.78,1200
77,103.73,103.7681,103.73,103.75,820
78,103.81,103.81,103.73,103.74,1800
79,103.775,103.7825,103.75,103.76,1700
80,103.79,103.79,103.78,103.78,200
81,103.76,103.79,103.76,103.79,1000
82,103.755,103.77,103.75,103.77,900
84,103.76,103.76,103.75,103.75,300
85,103.78,103.78,103.75,103.75,1200
86,103.85,103.85,103.78,103.78,700
87,103.86,103.86,103.86,103.86,200
88,103.84,103.85,103.84,103.85,900
89,103.86,103.89,103.86,103.87,3950
90,103.86,103.87,103.855,103.855,1963
91,103.83,103.86,103.83,103.86,2200
92,103.81,103.85,103.8,103.82,2089
93,103.805,103.805,103.805,103.805,100
94,103.83,103.83,103.82,103.82,500
95,103.92,103.92,103.87,103.87,400
96,103.92,103.92,103.92,103.92,100
97,103.97,103.98,103.97,103.97,748
98,103.95,103.97,103.94,103.96,2016
99,103.94,103.94,103.94,103.94,100
100,103.91,103.93,103.91,103.93,1100
101,103.85,103.93,103.85,103.9,2143
102,103.86,103.86,103.84,103.85,1000
103,103.84,103.845,103.83,103.845,500
104,103.835,103.84,103.83,103.84,900
105,103.82,103.83,103.82,103.83,400
106,103.815,103.815,103.8,103.8,400
107,103.82,103.82,103.81,103.82,600
108,103.81,103.81,103.81,103.81,100
109,103.79,103.81,103.79,103.81,1536
110,103.75,103.79,103.75,103.79,6753
111,103.7443,103.7443,103.71,103.74,2842
112,103.73,103.73,103.73,103.73,4934
113,103.75,103.75,103.74,103.74,1300
114,103.74,103.75,103.73,103.75,1600
115,103.74,103.74,103.7,103.73,2789
117,103.75,103.75,103.75,103.75,200
119,103.78,103.78,103.76,103.76,900
121,103.83,103.83,103.81,103.82,1400
123,103.82,103.82,103.82,103.82,300
124,103.8,103.825,103.78,103.825,1000
125,103.805,103.81,103.8,103.8,982
126,103.765,103.795,103.765,103.79,1000
127,103.78,103.78,103.765,103.765,200
129,103.79,103.79,103.79,103.79,404
130,103.79,103.82,103.79,103.805,600
132,103.844,103.844,103.82,103.82,813
133,103.92,103.92,103.86,103.86,2043
134,103.975,103.99,103.93,103.93,900
135,103.98,104,103.95,104,2951
137,103.98,103.98,103.98,103.98,100
138,104,104,103.99,103.99,1300
139,103.98,104.01,103.98,104.01,3753
140,103.925,103.96,103.925,103.96,500
141,103.93,103.95,103.93,103.94,1100
142,103.96,103.97,103.92,103.94,7804
143,103.9,103.945,103.9,103.94,800
144,103.91,103.91,103.91,103.91,100
145,103.885,103.9,103.88,103.89,600
147,103.86,103.88,103.86,103.87,1300
148,103.88,103.88,103.88,103.88,100
149,103.9296,103.9296,103.88,103.88,1396
150,103.95,103.98,103.93,103.93,1700
151,103.945,103.945,103.945,103.945,100
152,103.9459,103.96,103.93,103.945,946
153,103.94,103.94,103.93,103.94,700
154,103.955,103.955,103.92,103.93,1831
155,103.935,103.95,103.93,103.95,2200
156,103.94,103.94,103.9399,103.9399,200
157,103.94,103.95,103.935,103.94,1600
158,103.9401,103.95,103.9401,103.95,587
159,103.97,103.97,103.95,103.95,800
160,103.98,103.98,103.98,103.98,100
161,103.98,103.98,103.97,103.98,1261
162,104,104,103.98,103.98,500
163,103.99,104,103.98,104,1625
164,104.05,104.05,104,104,1400
166,104.05,104.06,104.05,104.06,300
167,104.042,104.05,104.03,104.05,1800
168,104.035,104.035,104.035,104.035,300
169,104.04,104.05,104.01,104.04,2700
170,104.09,104.09,104.04,104.04,1316
172,104.08,104.11,104.08,104.1,900
173,104.06,104.08,104.06,104.08,400
175,104.09,104.09,104.06,104.07,900
176,104.06,104.08,104.06,104.08,1173
177,104.06,104.075,104.06,104.07,300
178,104.07,104.07,104.07,104.07,100
180,104.07,104.07,104.07,104.07,200
182,104.14,104.14,104.08,104.08,1406
183,104.145,104.15,104.12,104.15,3020
184,104.1,104.15,104.1,104.15,1406
185,104.11,104.13,104.09,104.095,3200
186,104.105,104.105,104.105,104.105,195
187,104.09,104.09,104.09,104.09,100
188,104.085,104.09,104.08,104.09,400
189,104.0686,104.08,104.0686,104.08,934
190,104.08,104.08,104.07,104.08,2500
191,104.085,104.09,104.07,104.07,600
192,104.08,104.08,104.08,104.08,100
193,104.1,104.1,104.06,104.07,2297
194,104.15,104.15,104.12,104.12,400
195,104.16,104.16,104.14,104.14,700
196,104.145,104.1632,104.14,104.1632,1854
197,104.15,104.15,104.15,104.15,100
198,104.14,104.15,104.13,104.15,1567
199,104.15,104.16,104.15,104.15,500
200,104.155,104.155,104.15,104.15,400
201,104.16,104.16,104.16,104.16,100
202,104.13,104.14,104.13,104.14,700
203,104.15,104.15,104.13,104.14,1701
204,104.17,104.18,104.16,104.16,3589
206,104.12,104.175,104.12,104.175,1400
207,104.13,104.14,104.12,104.14,1100
208,104.13,104.13,104.13,104.13,200
209,104.13,104.13,104.13,104.13,300
210,104.14,104.15,104.14,104.14,1100
211,104.16,104.16,104.14,104.14,800
212,104.16,104.16,104.16,104.16,100
213,104.18,104.18,104.16,104.16,601
214,104.2,104.21,104.2,104.21,700
215,104.1829,104.19,104.1829,104.19,267
216,104.18,104.19,104.17,104.19,1600
218,104.18,104.18,104.18,104.18,382
219,104.17,104.18,104.17,104.18,300
220,104.17,104.18,104.17,104.17,800
221,104.19,104.19,104.175,104.175,16200
222,104.18,104.2,104.18,104.18,1700
223,104.18,104.2,104.17,104.18,2500
224,104.17,104.19,104.17,104.19,1600
225,104.16,104.17,104.16,104.17,300
226,104.15,104.16,104.15,104.16,1099
227,104.15,104.15,104.14,104.15,831
228,104.13,104.15,104.13,104.15,1500
229,104.13,104.13,104.12,104.1293,1100
230,104.12,104.12,104.12,104.12,100
231,104.12,104.13,104.1,104.115,435
232,104.115,104.115,104.115,104.115,100
233,104.1,104.11,104.1,104.11,600
234,104.0998,104.1,104.09,104.1,540
235,104.14,104.14,104.1,104.11,1200
236,104.18,104.18,104.14,104.14,1200
238,104.19,104.19,104.18,104.18,922
239,104.24,104.24,104.19,104.19,1820
240,104.26,104.26,104.25,104.25,306
241,104.28,104.28,104.26,104.26,300
242,104.3,104.3,104.27,104.29,1893
243,104.24,104.28,104.24,104.28,2303
244,104.221,104.24,104.221,104.24,500
245,104.215,104.22,104.215,104.22,600
246,104.23,104.24,104.2,104.2,1200
248,104.22,104.23,104.22,104.22,300
249,104.197,104.2,104.19,104.2,973
250,104.21,104.21,104.195,104.195,800
251,104.21,104.21,104.21,104.21,100
252,104.16,104.2,104.15,104.2,1423
253,104.12,104.155,104.12,104.155,800
254,104.09,104.11,104.09,104.1,700
255,104.08,104.095,104.08,104.08,1719
256,104.0773,104.08,104.07,104.08,437
257,104.11,104.11,104.07,104.0899,1757
258,104.11,104.115,104.11,104.11,500
259,104.12,104.13,104.1,104.11,1000
260,104.145,104.15,104.1,104.11,1900
262,104.14,104.1486,104.14,104.14,495
263,104.155,104.155,104.14,104.14,600
264,104.14,104.145,104.14,104.145,1100
265,104.14,104.15,104.14,104.14,500
266,104.125,104.13,104.12,104.13,600
267,104.135,104.14,104.125,104.125,400
268,104.14,104.14,104.13,104.1399,1150
269,104.14,104.14,104.12,104.14,1196
270,104.14,104.16,104.14,104.14,701
271,104.13,104.145,104.13,104.145,700
272,104.14,104.14,104.12,104.14,1300
273,104.125,104.135,104.125,104.135,200
274,104.12,104.12,104.11,104.11,400
275,104.12,104.13,104.105,104.11,904
276,104.15,104.15,104.14,104.14,1200
277,104.15,104.155,104.15,104.15,328
278,104.155,104.155,104.14,104.155,900
279,104.14,104.155,104.14,104.1501,1320
280,104.125,104.14,104.11,104.13,1000
281,104.11,104.125,104.11,104.125,400
282,104.11,104.125,104.11,104.11,700
283,104.075,104.12,104.075,104.12,1400
284,104.07,104.08,104.07,104.08,1100
285,104.07,104.07,104.06,104.065,517
286,104.04,104.07,104.04,104.07,892
287,104.02,104.05,104.02,104.05,2437
288,104.045,104.05,104.02,104.02,2756
289,104.04,104.045,104.04,104.04,900
290,104.06,104.06,104.04,104.04,2420
291,104.07,104.07,104.06,104.06,400
292,104.1,104.1,104.07,104.07,800
293,104.1085,104.12,104.08,104.1,1979
294,104.1,104.11,104.1,104.11,400
295,104.13,104.13,104.1,104.1,600
296,104.13,104.14,104.125,104.13,902
297,104.13,104.13,104.13,104.13,100
298,104.13,104.135,104.13,104.135,500
299,104.14,104.14,104.13,104.135,400
300,104.1536,104.16,104.15,104.15,662
301,104.21,104.21,104.18,104.18,530
302,104.22,104.23,104.22,104.22,700
303,104.215,104.225,104.21,104.22,1600
304,104.21,104.23,104.21,104.22,1177
305,104.21,104.22,104.21,104.215,600
306,104.18,104.2199,104.18,104.2199,1456
307,104.19,104.2,104.19,104.19,710
308,104.195,104.21,104.18,104.18,1654
309,104.2,104.22,104.2,104.22,1200
310,104.2,104.22,104.2,104.21,900
311,104.21,104.21,104.19,104.2,1000
312,104.22,104.22,104.21,104.2132,857
313,104.22,104.228,104.22,104.22,700
314,104.23,104.23,104.22,104.23,400
315,104.14,104.23,104.14,104.23,3833
316,104.12,104.1568,104.12,104.13,400
317,104.11,104.12,104.11,104.12,1300
318,104.1,104.12,104.1,104.105,1000
319,104.1193,104.12,104.11,104.12,816
320,104.13,104.15,104.12,104.1293,743
321,104.16,104.16,104.12,104.12,363
322,104.17,104.18,104.16,104.18,800
323,104.16,104.17,104.15,104.17,1000
324,104.16,104.16,104.15,104.15,300
325,104.14,104.15,104.14,104.14,900
326,104.17,104.175,104.12,104.15,17450
327,104.16,104.16,104.12,104.15,8515
328,104.1429,104.16,104.13,104.16,1300
329,104.14,104.16,104.13,104.13,1040
330,104.105,104.13,104.1,104.13,1100
331,104.07,104.11,104.07,104.11,1100
332,104.078,104.08,104.05,104.08,1600
333,104.05,104.07,104.05,104.07,1000
334,104.05,104.07,104.05,104.05,1000
335,103.99,104.06,103.99,104.05,2000
336,104,104.0254,103.99,104,3049
337,104,104.01,103.99,103.99,2100
338,103.99,104,103.99,104,300
339,103.92,103.99,103.91,103.99,2800
340,103.91,103.93,103.91,103.92,1100
341,103.91,103.92,103.9,103.91,1600
342,103.92,103.93,103.9,103.9,1746
343,103.91,103.92,103.905,103.92,1300
344,103.9,103.91,103.88,103.91,1555
345,103.88,103.93,103.88,103.93,3743
346,103.85,103.87,103.85,103.87,2600
347,103.83,103.87,103.83,103.86,2100
348,103.85,103.875,103.83,103.83,3700
349,103.85,103.87,103.85,103.86,1700
350,103.86,103.87,103.85,103.86,2200
351,103.85,103.87,103.85,103.87,2815
352,103.86,103.87,103.86,103.86,1700
353,103.85,103.88,103.85,103.87,1800
354,103.83,103.86,103.83,103.84,3200
355,103.79,103.83,103.79,103.83,2306
356,103.77,103.81,103.77,103.79,2832
357,103.76,103.78,103.76,103.77,1700
358,103.78,103.81,103.76,103.76,2202
359,103.81,103.81,103.78,103.78,900
360,103.82,103.83,103.81,103.81,1600
361,103.85,103.86,103.81,103.82,3253
362,103.85,103.86,103.85,103.85,2100
363,103.86,103.865,103.84,103.85,3600
364,103.86,103.87,103.85,103.86,1000
365,103.84,103.86,103.84,103.86,2411
366,103.8829,103.8829,103.84,103.845,4557
367,103.86,103.88,103.86,103.88,3112
368,103.83,103.87,103.83,103.86,2900
369,103.79,103.83,103.79,103.83,2403
370,103.76,103.8,103.76,103.78,3694
371,103.69,103.765,103.67,103.76,7872
372,103.71,103.71,103.69,103.69,1567
373,103.63,103.72,103.63,103.71,8727
374,103.67,103.67,103.62,103.63,6433
375,103.72,103.73,103.69,103.69,6671
376,103.7,103.7275,103.69,103.715,12305
377,103.64,103.71,103.64,103.7,14959
378,103.705,103.71,103.64,103.64,8625
379,103.7,103.74,103.68,103.7,14358
380,103.6834,103.71,103.68,103.7,4774
381,103.72,103.72,103.67,103.69,6011
382,103.68,103.73,103.67,103.72,6665
383,103.669,103.69,103.667,103.67,8906
384,103.69,103.69,103.65,103.66,6924
385,103.68,103.7,103.68,103.68,7829
386,103.7,103.71,103.68,103.68,8189
387,103.67,103.7,103.67,103.7,6599
388,103.75,103.76,103.67,103.68,20483
389,103.79,103.79,103.74,103.75,11273
390,103.81,103.87,103.77,103.8,29226
