PPG,PPG Industries,Materials,8,Specialty Chemicals,25517246005,1214598
a1500643800,106.34,106.34,106.25,106.25,81575
1,106.34,106.455,106.34,106.34,2690
2,106.27,106.39,106.26,106.27,1300
3,106.77,106.89,106.32,106.32,8550
4,107.015,107.04,106.78,106.78,3438
5,106.92,107.02,106.8,106.93,2100
6,107.05,107.12,106.85,106.925,9775
7,107.03,107.11,106.68,107.11,10388
8,106.87,107.03,106.87,107.03,6308
9,107.12,107.15,106.63,106.83,11100
10,106.83,107.05,106.83,106.99,6077
11,106.91,106.94,106.85,106.89,4900
12,106.74,106.83,106.68,106.83,13646
13,106.7,106.745,106.7,106.71,16000
14,106.8,106.8,106.7,106.73,10983
15,106.95,106.98,106.76,106.79,7220
16,106.885,106.99,106.855,106.99,6277
17,107.005,107.04,106.89,106.92,61618
18,106.83,107.01,106.83,107.01,6681
19,106.91,106.91,106.83,106.85,6100
20,106.905,106.93,106.89,106.9176,1940
21,106.87,106.965,106.87,106.92,9473
22,106.72,106.835,106.7,106.835,7500
23,106.73,106.77,106.69,106.74,12430
24,106.7,106.81,106.7,106.78,14293
25,106.86,106.94,106.6,106.7,31866
26,106.97,107,106.84,106.84,4700
27,106.88,106.98,106.88,106.98,1514
28,106.88,106.915,106.87,106.89,4894
29,106.86,106.93,106.86,106.895,2835
30,106.8,106.91,106.8,106.86,12219
31,106.76,106.88,106.76,106.83,4915
32,106.88,106.9,106.72,106.75,5701
33,106.84,106.9,106.84,106.87,2779
34,106.85,106.87,106.8,106.81,5309
35,106.925,106.94,106.83,106.86,24567
36,106.86,106.925,106.82,106.9,5100
37,106.74,106.89,106.74,106.84,9850
38,106.755,106.8,106.68,106.79,13800
39,106.7,106.77,106.68,106.74,5200
40,106.685,106.74,106.68,106.71,4900
41,106.69,106.72,106.61,106.67,10843
42,106.62,106.67,106.59,106.67,10329
43,106.68,106.71,106.63,106.63,3624
44,106.75,106.75,106.67,106.67,2258
45,106.775,106.8,106.72,106.72,5334
46,106.755,106.8,106.74,106.78,8624
47,106.75,106.79,106.75,106.77,3582
48,106.82,106.83,106.75,106.76,3732
49,106.89,106.89,106.825,106.825,4360
50,106.85,106.885,106.83,106.885,3054
51,106.84,106.84,106.76,106.8301,11799
52,106.84,106.89,106.81,106.83,3727
53,106.91,106.91,106.83,106.83,1956
54,106.92,106.98,106.91,106.94,4000
55,106.955,106.97,106.93,106.94,4197
56,106.94,106.97,106.91,106.96,6950
57,106.955,106.96,106.93,106.94,29841
58,106.98,107,106.95,106.95,4694
59,107.04,107.05,106.93,106.97,19466
60,107.01,107.04,107,107.04,6500
61,107,107.03,107,107.015,3200
62,107.03,107.04,106.99,107.01,5713
63,107.035,107.04,107,107.03,1800
64,107.03,107.11,107.03,107.035,19220
65,107.07,107.07,107.05,107.07,2700
66,107,107.1,106.95,107.07,6695
67,107.02,107.02,106.98,106.99,3100
68,106.99,107.02,106.98,106.99,10750
69,106.985,107.005,106.96,107,15400
70,107,107,107,107,1500
71,107.015,107.02,106.99,107.02,2400
72,107.015,107.03,107.015,107.015,900
73,107.005,107.03,106.99,107.03,2800
74,106.985,107.01,106.97,107.0014,6299
75,106.87,107,106.87,106.99,7931
76,106.865,106.89,106.85,106.87,3500
77,106.91,106.91,106.83,106.8501,3436
78,106.96,106.96,106.92,106.92,1258
79,107.015,107.02,106.97,106.97,5900
80,107,107.02,106.97,107.015,6400
81,107,107,106.97,107,3781
82,106.97,107.01,106.94,106.9775,11650
83,106.92,107,106.92,107,2365
84,106.9775,107,106.95,106.95,12660
85,106.96,107,106.96,107,3500
86,106.91,106.96,106.89,106.96,1879
87,106.92,106.92,106.87,106.89,3600
88,106.94,106.94,106.92,106.92,2400
89,106.93,106.93,106.9,106.93,2050
90,106.92,106.95,106.91,106.93,2700
91,106.9,106.92,106.88,106.92,3900
92,106.91,106.91,106.87,106.89,3494
93,106.95,106.95,106.92,106.92,500
94,106.94,107,106.88,106.93,12684
95,106.9858,106.99,106.93,106.93,1717
96,107,107.02,106.99,106.99,3100
97,107.005,107.01,107,107,1700
98,107.01,107.02,106.99,107,2239
99,107.05,107.07,107.01,107.02,6341
100,107.13,107.15,107.03,107.06,6820
101,107.14,107.15,107.11,107.15,1803
102,107.28,107.36,107.15,107.15,10458
103,107.22,107.29,107.22,107.28,5700
104,107.18,107.22,107.175,107.22,2200
105,107.115,107.22,107.115,107.1792,22725
106,107.16,107.16,107.12,107.12,8066
107,107.15,107.17,107.14,107.16,1200
108,107.215,107.215,107.15,107.15,2458
109,107.14,107.28,107.14,107.22,7210
110,107.08,107.15,107.045,107.12,6848
111,107.0986,107.1,107.07,107.09,3232
112,107.0999,107.1,107.05,107.08,9915
113,107.095,107.1,107.085,107.085,964
114,107.14,107.21,107.095,107.11,6581
115,107.17,107.17,107.0501,107.11,24938
116,107.34,107.4,107.17,107.17,11574
117,107.29,107.4,107.26,107.37,5587
118,107.125,107.34,107.09,107.3,9267
119,107.17,107.23,107.15,107.15,2400
120,107.255,107.255,107.2,107.2,900
121,107.235,107.265,107.2,107.255,1800
122,107.24,107.26,107.2,107.235,3900
123,107.2,107.26,107.13,107.255,4957
124,107.24,107.24,107.23,107.23,200
125,107.22,107.26,107.22,107.24,3628
126,107.24,107.28,107.18,107.25,5539
127,107.26,107.26,107.23,107.24,690
128,107.22,107.26,107.22,107.2461,2703
129,107.18,107.26,107.16,107.24,6705
130,107.17,107.2,107.16,107.18,2200
131,107.26,107.26,107.2,107.21,4500
132,107.25,107.27,107.24,107.26,2350
133,107.26,107.315,107.13,107.27,8210
134,107.21,107.28,107.19,107.28,1807
135,107.28,107.28,107.215,107.215,1476
136,107.26,107.3,107.25,107.285,2400
137,107.28,107.28,107.24,107.26,2529
138,107.28,107.32,107.27,107.31,5100
139,107.24,107.28,107.24,107.28,2200
140,107.27,107.29,107.23,107.23,3194
141,107.25,107.29,107.25,107.27,3000
142,107.18,107.27,107.14,107.27,8220
143,107.15,107.2,107.15,107.18,2850
144,107.15,107.165,107.14,107.15,2500
145,107.185,107.2,107.13,107.15,5404
146,107.145,107.18,107.12,107.18,12890
147,107.2,107.2,107.17,107.17,2813
148,107.21,107.21,107.16,107.21,3300
149,107.22,107.23,107.19,107.21,5920
150,107.27,107.27,107.225,107.225,6159
151,107.23,107.27,107.23,107.26,6724
152,107.18,107.24,107.15,107.24,5000
153,107.105,107.2,107.09,107.17,8140
154,107.115,107.13,107.1,107.105,3200
155,107.09,107.12,107.08,107.115,4154
156,107.02,107.1,106.99,107.095,8413
157,107,107.06,107,107.03,7300
158,107.015,107.015,107.015,107.015,100
159,107.04,107.04,107.015,107.015,6600
160,106.99,107.04,106.99,107.04,4140
161,107,107.01,106.9912,106.9912,513
162,106.97,106.98,106.96,106.98,4089
163,106.98,106.98,106.975,106.975,300
164,106.99,107,106.98,106.98,3058
165,106.99,107,106.99,107,1001
166,106.98,107.005,106.98,107,4100
167,106.92,106.975,106.86,106.97,7050
168,106.94,106.94,106.92,106.93,2423
169,106.91,106.94,106.91,106.94,1300
170,106.87,106.91,106.87,106.91,2200
171,106.88,106.91,106.87,106.88,2898
172,106.85,106.88,106.85,106.88,1878
173,106.85,106.8602,106.81,106.86,4558
174,106.845,106.86,106.84,106.85,2289
175,106.87,106.87,106.86,106.86,8119
176,106.9,106.91,106.86,106.87,4985
177,106.91,106.92,106.89,106.89,1636
178,106.925,106.93,106.92,106.92,1500
179,106.92,106.92,106.9,106.91,2392
180,106.94,106.94,106.94,106.94,100
181,106.92,106.94,106.89,106.91,2200
182,106.94,106.94,106.92,106.92,2600
183,106.93,106.94,106.91,106.94,3820
184,106.94,106.94,106.93,106.93,200
185,106.94,106.94,106.92,106.92,1200
186,106.95,106.95,106.9401,106.9401,1300
187,106.96,106.96,106.93,106.96,3750
188,106.96,106.96,106.95,106.95,700
189,106.97,106.97,106.95,106.96,869
190,106.98,106.98,106.96,106.97,1709
191,107,107,106.96,106.98,8428
192,107.02,107.03,107,107,5300
193,107.01,107.03,107.01,107.01,2200
194,107.01,107.03,107.01,107.01,700
195,107.005,107.03,106.995,107.01,1700
196,107.005,107.005,107.005,107.005,300
197,106.97,107.01,106.97,107.01,3900
198,106.985,106.985,106.97,106.97,1500
199,107.02,107.02,106.995,107,6059
200,107.015,107.02,107.015,107.015,1600
201,107.015,107.015,107.01,107.015,1800
202,107,107.015,106.99,107.015,4890
203,106.99,107,106.99,106.99,2243
204,106.98,106.98,106.98,106.98,100
205,106.995,106.995,106.995,106.995,400
206,106.99,107.01,106.99,106.995,1200
207,106.98,107,106.96,107,2698
208,106.9203,106.97,106.9203,106.97,1500
209,106.935,106.94,106.92,106.92,4474
210,106.95,106.95,106.95,106.95,100
211,106.94,106.96,106.94,106.95,3097
212,106.96,106.96,106.95,106.96,1150
213,106.97,106.97,106.95,106.955,1900
214,106.96,106.97,106.95,106.97,1227
215,106.92,106.96,106.92,106.9534,1856
216,106.95,106.95,106.94,106.94,1700
217,106.94,106.96,106.94,106.96,3080
218,106.945,106.96,106.94,106.96,900
219,106.96,106.96,106.94,106.95,67841
220,106.985,107.01,106.96,106.96,22354
221,106.9805,107,106.9805,106.985,643
222,107,107,106.97,106.985,500
223,106.98,107,106.98,106.985,2400
224,106.99,106.99,106.97,106.97,894
225,106.95,107.01,106.95,106.985,6704
226,106.93,106.93,106.93,106.93,100
227,106.93,106.97,106.93,106.955,1700
228,106.91,106.92,106.9,106.92,2500
229,106.915,106.92,106.91,106.91,1527
230,106.88,106.92,106.88,106.92,5502
231,106.87,106.888,106.86,106.88,505
232,106.81,106.88,106.81,106.87,2600
233,106.8,106.83,106.8,106.81,1950
234,106.77,106.82,106.77,106.81,1200
235,106.76,106.76,106.76,106.76,200
236,106.8,106.8,106.76,106.78,1000
237,106.74,106.785,106.705,106.78,7857
238,106.725,106.74,106.71,106.7399,1395
239,106.8,106.8,106.75,106.75,13926
240,106.8,106.83,106.8,106.81,2382
241,106.83,106.83,106.82,106.83,1754
242,106.9,106.98,106.8398,106.8398,9208
243,106.93,106.93,106.93,106.93,100
244,106.87,106.94,106.85,106.94,2700
245,106.835,106.87,106.82,106.87,2100
246,106.83,106.84,106.79,106.835,4173
247,106.77,106.81,106.74,106.81,2299
248,106.79,106.8,106.77,106.77,3684
249,106.77,106.8,106.77,106.79,2516
250,106.8,106.8,106.77,106.785,678
251,106.78,106.81,106.78,106.794,4350
252,106.785,106.785,106.785,106.785,800
253,106.79,106.81,106.77,106.785,4599
254,106.74,106.78,106.74,106.78,1500
255,106.76,106.77,106.74,106.74,300
256,106.76,106.77,106.75,106.75,707
257,106.71,106.75,106.71,106.75,2194
258,106.73,106.73,106.73,106.73,100
259,106.71,106.71,106.71,106.71,700
260,106.7,106.72,106.7,106.71,1600
261,106.74,106.75,106.71,106.71,2377
262,106.71,106.73,106.71,106.73,900
263,106.73,106.73,106.71,106.71,400
264,106.74,106.75,106.73,106.74,2800
265,106.75,106.75,106.7351,106.7351,569
266,106.72,106.76,106.72,106.7428,7104
267,106.7,106.725,106.64,106.725,5300
268,106.7,106.7,106.69,106.7,1175
269,106.68,106.71,106.68,106.71,1364
270,106.7,106.7,106.68,106.69,800
271,106.7,106.71,106.69,106.7,1009
272,106.67,106.69,106.67,106.69,2900
273,106.67,106.69,106.67,106.68,2100
274,106.68,106.6996,106.68,106.69,2162
275,106.7,106.7,106.7,106.7,408
276,106.69,106.7,106.69,106.7,1800
277,106.75,106.75,106.7,106.7,13168
278,106.74,106.75,106.73,106.75,2154
279,106.76,106.76,106.74,106.75,1300
280,106.73,106.75,106.73,106.75,2846
283,106.74,106.77,106.74,106.75,6454
284,106.75,106.76,106.75,106.75,1500
285,106.7535,106.76,106.75,106.75,2307
286,106.73,106.755,106.73,106.755,5491
287,106.7358,106.75,106.71,106.71,3054
288,106.75,106.75,106.745,106.7459,1057
289,106.7201,106.76,106.7201,106.76,2565
290,106.74,106.75,106.73,106.74,1300
291,106.72,106.75,106.72,106.74,2700
292,106.66,106.71,106.65,106.71,1447
293,106.64,106.66,106.64,106.66,400
294,106.68,106.68,106.66,106.68,2500
295,106.68,106.68,106.665,106.665,1000
296,106.68,106.685,106.675,106.68,2644
297,106.67,106.69,106.67,106.68,3511
298,106.57,106.67,106.565,106.66,31800
299,106.52,106.58,106.51,106.55,18383
300,106.53,106.55,106.52,106.52,2650
301,106.58,106.58,106.53,106.55,3399
302,106.57,106.58,106.56,106.57,3304
303,106.5301,106.57,106.5301,106.5603,3578
304,106.47,106.53,106.46,106.53,4519
305,106.5,106.5,106.47,106.47,1105
306,106.47,106.495,106.47,106.495,2800
307,106.45,106.48,106.45,106.46,700
308,106.46,106.46,106.45,106.45,2108
309,106.47,106.47,106.45,106.46,900
310,106.46,106.48,106.45,106.47,5218
311,106.453,106.48,106.45,106.45,1533
312,106.46,106.48,106.45,106.4617,1200
313,106.48,106.48,106.45,106.46,2342
314,106.48,106.5,106.475,106.475,2002
315,106.46,106.49,106.46,106.49,5255
316,106.45,106.47,106.45,106.47,1000
317,106.48,106.48,106.46,106.4673,3719
318,106.4856,106.4856,106.47,106.48,1900
319,106.4924,106.4924,106.48,106.49,1377
320,106.405,106.5,106.4,106.5,8180
321,106.42,106.44,106.4,106.42,3365
322,106.47,106.47,106.42,106.42,3972
323,106.45,106.47,106.43,106.4601,2800
324,106.46,106.47,106.4465,106.45,1550
325,106.47,106.47,106.46,106.47,600
326,106.48,106.48,106.46,106.47,1752
327,106.45,106.48,106.445,106.48,4436
328,106.46,106.46,106.44,106.44,1108
329,106.4635,106.47,106.44,106.46,5300
330,106.46,106.48,106.45,106.46,3726
331,106.4768,106.49,106.47,106.48,1549
332,106.49,106.49,106.47,106.47,1750
333,106.49,106.5,106.48,106.49,4621
334,106.45,106.49,106.45,106.49,7910
335,106.47,106.47,106.47,106.47,100
336,106.45,106.475,106.45,106.46,9341
337,106.4,106.47,106.39,106.455,9801
338,106.405,106.41,106.3988,106.3988,1259
339,106.405,106.41,106.405,106.41,700
340,106.36,106.405,106.33,106.405,7576
341,106.38,106.38,106.33,106.33,2160
342,106.39,106.39,106.36,106.37,3275
343,106.39,106.4,106.37,106.4,2576
344,106.375,106.38,106.37,106.37,2350
345,106.37,106.38,106.33,106.375,8855
346,106.4,106.4,106.38,106.38,2700
347,106.39,106.4,106.38,106.395,4700
348,106.38,106.41,106.38,106.4,6735
349,106.38,106.38,106.37,106.38,1300
350,106.38,106.38,106.37,106.38,1600
351,106.35,106.38,106.33,106.38,5997
352,106.32,106.32,106.32,106.32,100
353,106.31,106.35,106.3099,106.35,3500
354,106.33,106.34,106.3,106.31,4800
355,106.3,106.335,106.3,106.32,4012
356,106.31,106.31,106.31,106.31,1273
357,106.3,106.33,106.28,106.315,7777
358,106.32,106.32,106.32,106.32,1600
359,106.38,106.39,106.32,106.33,4877
360,106.405,106.41,106.38,106.38,7900
361,106.41,106.42,106.4,106.4,7734
362,106.37,106.4,106.37,106.4,3200
363,106.34,106.37,106.33,106.37,6201
364,106.31,106.38,106.3,106.36,11426
365,106.31,106.36,106.31,106.33,10400
366,106.36,106.36,106.3,106.31,5221
367,106.31,106.37,106.31,106.37,12049
368,106.36,106.36,106.29,106.32,12744
369,106.34,106.38,106.33,106.365,11649
370,106.365,106.37,106.33,106.34,4497
371,106.355,106.3699,106.33,106.365,8490
372,106.37,106.37,106.35,106.355,3419
373,106.36,106.37,106.31,106.365,20002
374,106.35,106.36,106.32,106.36,6822
375,106.35,106.37,106.34,106.35,8075
376,106.34,106.375,106.335,106.36,21721
377,106.37,106.37,106.34,106.35,5998
378,106.4599,106.4599,106.365,106.37,8463
379,106.4701,106.485,106.45,106.46,8637
380,106.5,106.5,106.475,106.48,5942
381,106.47,106.5,106.47,106.49,13674
382,106.51,106.52,106.47,106.47,10118
383,106.38,106.52,106.37,106.52,28361
384,106.321,106.43,106.31,106.39,30834
385,106.37,106.37,106.3,106.33,23961
386,106.37,106.44,106.36,106.37,20716
387,106.34,106.3799,106.33,106.36,28711
388,106.4,106.41,106.345,106.345,17177
389,106.42,106.43,106.4,106.405,12029
390,106.37,106.43,106.3,106.43,45646
