EOG,EOG Resources,Energy,3,Oil & Gas Exploration & Production,53162233046,3115746
a1495632600,92.37,92.37,92.37,92.37,24187
1,92.37,92.52,92.37,92.52,600
2,92.69,92.74,92.39,92.465,3200
3,92.55,92.71,92.31,92.65,7714
4,92.52,92.52,92.31,92.31,1200
5,92.58,92.64,92.51,92.53,6807
6,92.5,92.57,92.49,92.53,5493
7,92.4772,92.55,92.46,92.52,3800
8,92.51,92.51,92.495,92.495,1700
9,92.48,92.54,92.46,92.4986,12400
10,92.53,92.56,92.49,92.52,5250
11,92.48,92.55,92.44,92.55,5813
12,92.455,92.523,92.45,92.46,6800
13,92.49,92.495,92.45,92.455,4000
14,92.5,92.54,92.49,92.509,1799
15,92.5,92.54,92.49,92.54,5072
16,92.5,92.55,92.48,92.5016,5872
17,92.5,92.53,92.475,92.5,14621
18,92.57,92.63,92.5,92.5,5800
19,92.4848,92.57,92.47,92.57,5234
20,92.5,92.53,92.44,92.5,9326
21,92.5,92.53,92.49,92.53,8849
22,92.54,92.59,92.495,92.495,5151
23,92.55,92.56,92.55,92.55,1800
24,92.6525,92.66,92.56,92.56,3796
25,92.65,92.67,92.6,92.67,675
26,92.63,92.68,92.63,92.67,1700
27,92.649,92.649,92.64,92.64,350
28,92.6576,92.67,92.64,92.65,1588
29,92.6,92.6,92.59,92.6,1100
30,92.68,92.68,92.6,92.61,6804
31,92.62,92.69,92.62,92.64,16999
32,92.61,92.6279,92.58,92.6279,3338
33,92.65,92.665,92.6,92.61,7587
34,92.61,92.64,92.59,92.64,5550
35,92.6,92.68,92.55,92.61,13704
36,92.53,92.6,92.5283,92.5801,2750
37,92.5575,92.58,92.54,92.54,1800
38,92.509,92.575,92.49,92.5555,11856
39,92.53,92.53,92.49,92.515,8087
40,92.5,92.52,92.5,92.5,4310
41,92.48,92.51,92.48,92.5075,14407
42,92.54,92.54,92.45,92.497,3966
43,92.545,92.56,92.505,92.5219,4213
44,92.62,92.64,92.56,92.57,5200
45,92.74,92.74,92.64,92.64,2560
46,92.71,92.73,92.67,92.73,1825
47,92.7175,92.73,92.7079,92.7079,515
48,92.63,92.7309,92.63,92.7309,3350
49,92.655,92.655,92.62,92.64,1100
50,92.67,92.67,92.6,92.66,3400
51,92.66,92.69,92.66,92.67,1600
52,92.65,92.67,92.62,92.67,3800
53,92.6525,92.66,92.62,92.62,2720
54,92.74,92.74,92.65,92.65,2802
55,92.84,92.84,92.74,92.74,8485
56,92.86,92.88,92.84,92.84,2776
57,92.95,93,92.851,92.88,6420
58,92.9,92.9185,92.9,92.91,1375
59,92.9064,92.92,92.88,92.89,1700
60,92.95,92.95,92.829,92.87,4317
61,93.23,93.24,92.9695,92.9695,20813
62,93.27,93.37,93.17,93.23,22567
63,93.32,93.39,93.19,93.255,9381
64,93.29,93.39,93.29,93.34,3320
65,93.195,93.325,93.19,93.325,3435
66,93.07,93.22,93.02,93.21,8960
67,92.995,93.19,92.99,93.09,9927
68,93.11,93.11,93.04,93.04,1490
69,93.12,93.12,93.09,93.11,700
70,93.12,93.17,93.1,93.16,6196
71,93.08,93.11,93.01,93.11,6815
72,93.28,93.28,93.07,93.08,4450
73,93.29,93.31,93.23,93.24,1352
74,93.28,93.33,93.26,93.33,5785
75,93.36,93.36,93.3,93.3,1371
76,93.32,93.39,93.29,93.37,6351
77,93.28,93.32,93.25,93.28,13761
78,93.322,93.35,93.25,93.29,2754
79,93.31,93.35,93.3,93.31,4002
80,93.28,93.33,93.22,93.33,5245
81,93.12,93.28,93.12,93.28,54476
82,93.2098,93.22,93.071,93.11,6831
83,93.115,93.22,93.115,93.19,2400
84,93.13,93.13,93.07,93.11,2960
85,93.11,93.11,93.08,93.1,1902
86,93.15,93.2,93.11,93.11,2089
87,93.14,93.19,93.14,93.19,2808
88,93.1,93.14,93.1,93.14,2100
89,93.145,93.15,93.08,93.1,3810
90,93.07,93.13,93.07,93.13,6238
91,93.09,93.12,93.08,93.1,4443
92,93.035,93.07,93.03,93.07,2252
93,92.88,93.06,92.835,93.06,9017
94,92.75,92.8958,92.75,92.8958,9962
95,92.63,92.78,92.63,92.77,14138
96,92.6856,92.72,92.62,92.62,2900
97,92.75,92.85,92.74,92.76,4072
98,92.8,92.88,92.75,92.76,18470
99,92.78,92.83,92.76,92.8,4033
100,92.75,92.79,92.74,92.74,3630
101,92.75,92.799,92.75,92.795,1500
102,92.72,92.7699,92.71,92.7699,3741
103,92.61,92.72,92.61,92.72,4682
104,92.58,92.63,92.57,92.61,5574
105,92.5401,92.59,92.54,92.57,2800
106,92.61,92.65,92.51,92.54,4500
107,92.57,92.62,92.56,92.61,3475
108,92.5,92.56,92.49,92.56,6089
109,92.49,92.528,92.48,92.49,3574
110,92.55,92.58,92.48,92.49,2900
111,92.57,92.59,92.53,92.55,2800
112,92.61,92.61,92.53,92.56,2700
113,92.65,92.67,92.6,92.6224,8565
114,92.67,92.69,92.64,92.65,2200
115,92.69,92.71,92.65,92.69,4046
116,92.69,92.7,92.65,92.68,5107
117,92.73,92.78,92.69,92.69,1564
118,92.7,92.729,92.68,92.7168,5754
119,92.65,92.74,92.65,92.71,5973
120,92.74,92.74,92.66,92.66,6753
121,92.68,92.7299,92.68,92.71,3970
122,92.65,92.68,92.63,92.68,6042
123,92.64,92.66,92.62,92.65,19577
124,92.55,92.65,92.54,92.62,7300
125,92.58,92.59,92.56,92.56,1642
126,92.56,92.6,92.56,92.6,2145
128,92.55,92.57,92.52,92.57,3800
129,92.44,92.53,92.44,92.53,8818
130,92.4,92.46,92.39,92.42,6500
131,92.43,92.44,92.3701,92.4,8099
132,92.42,92.45,92.38,92.429,12587
133,92.46,92.48,92.39,92.39,2361
134,92.47,92.47,92.44,92.44,1000
135,92.47,92.48,92.42,92.4442,4610
136,92.5,92.52,92.46,92.46,2653
137,92.56,92.56,92.48,92.48,1200
138,92.51,92.56,92.51,92.56,5629
139,92.48,92.52,92.47,92.52,3201
140,92.53,92.53,92.49,92.49,700
141,92.57,92.61,92.54,92.54,3233
142,92.55,92.58,92.53,92.57,7165
143,92.55,92.57,92.54,92.56,2471
144,92.5968,92.6201,92.55,92.55,4647
145,92.5655,92.59,92.56,92.59,6900
146,92.48,92.56,92.47,92.56,2851
147,92.55,92.57,92.49,92.49,4826
148,92.53,92.545,92.53,92.545,608
149,92.48,92.54,92.48,92.5,2850
150,92.46,92.49,92.46,92.49,900
151,92.46,92.46,92.42,92.43,2600
152,92.44,92.45,92.41,92.44,2000
153,92.485,92.485,92.4,92.455,4748
154,92.44,92.485,92.44,92.48,2975
155,92.44,92.4453,92.42,92.42,638
156,92.46,92.49,92.45,92.47,4201
157,92.54,92.54,92.46,92.46,5200
158,92.54,92.56,92.525,92.54,2900
159,92.52,92.58,92.52,92.57,3382
160,92.54,92.55,92.49,92.51,3464
161,92.5399,92.54,92.52,92.53,1480
162,92.59,92.59,92.53,92.54,4072
163,92.58,92.59,92.57,92.58,2800
164,92.59,92.59,92.59,92.59,500
165,92.51,92.58,92.5,92.56,5094
166,92.53,92.53,92.44,92.5,15125
167,92.52,92.53,92.5,92.52,6988
168,92.59,92.6,92.51,92.51,10264
169,92.57,92.59,92.535,92.59,12589
170,92.6,92.6,92.6,92.6,401
171,92.64,92.64,92.56,92.6,5900
172,92.6,92.68,92.57,92.65,2964
173,92.64,92.64,92.57,92.6,2213
174,92.68,92.68,92.68,92.68,100
175,92.66,92.68,92.66,92.6769,906
176,92.69,92.73,92.68,92.69,5650
177,92.71,92.71,92.66,92.69,3100
178,92.68,92.695,92.67,92.69,2700
179,92.685,92.69,92.67,92.67,3525
180,92.665,92.68,92.66,92.68,1737
181,92.65,92.679,92.65,92.67,4450
182,92.6225,92.66,92.62,92.66,6680
183,92.66,92.66,92.61,92.62,3311
184,92.67,92.67,92.65,92.65,1700
185,92.71,92.71,92.66,92.67,5558
186,92.66,92.7,92.65,92.7,7040
187,92.63,92.64,92.62,92.62,8407
188,92.645,92.66,92.6,92.63,19324
189,92.53,92.68,92.53,92.64,15125
190,92.6,92.61,92.54,92.545,2945
191,92.63,92.65,92.63,92.64,1444
192,92.64,92.64,92.62,92.62,700
193,92.625,92.65,92.62,92.63,2100
194,92.631,92.631,92.61,92.62,1196
195,92.595,92.64,92.59,92.64,1508
196,92.57,92.61,92.552,92.61,1654
197,92.56,92.58,92.54,92.58,1309
198,92.52,92.5581,92.52,92.5581,934
199,92.48,92.52,92.48,92.52,861
200,92.46,92.48,92.46,92.46,3363
201,92.46,92.46,92.45,92.46,700
202,92.43,92.44,92.41,92.44,700
203,92.42,92.42,92.38,92.4,8372
204,92.395,92.43,92.395,92.42,3350
205,92.4,92.4,92.38,92.38,1100
206,92.42,92.42,92.4,92.4,2086
207,92.43,92.43,92.4,92.4,3500
208,92.4,92.42,92.38,92.42,6325
209,92.38,92.42,92.38,92.39,3619
210,92.42,92.42,92.36,92.36,4700
211,92.42,92.43,92.4,92.4,2300
212,92.41,92.42,92.39,92.41,8003
213,92.42,92.42,92.4,92.41,5360
214,92.49,92.49,92.41,92.41,12753
215,92.4,92.5,92.38,92.49,14024
216,92.4,92.43,92.39,92.42,4243
217,92.42,92.43,92.37,92.4,10620
218,92.47,92.48,92.44,92.44,5687
219,92.46,92.49,92.46,92.47,1427
220,92.49,92.49,92.44,92.48,4311
221,92.48,92.5,92.48,92.49,1200
222,92.47,92.5,92.47,92.5,2590
223,92.5,92.5,92.47,92.47,3524
224,92.46,92.51,92.45,92.51,2075
225,92.54,92.54,92.49,92.49,7636
226,92.47,92.55,92.47,92.55,4471
227,92.5,92.52,92.46,92.46,17300
228,92.48,92.5,92.47,92.5,2822
229,92.5,92.5,92.48,92.5,3551
230,92.5,92.51,92.47,92.49,6833
231,92.51,92.545,92.49,92.5,7600
232,92.5,92.53,92.49,92.49,5767
233,92.57,92.57,92.49,92.5,10129
234,92.55,92.58,92.54,92.58,9789
235,92.53,92.57,92.53,92.57,6200
236,92.53,92.55,92.51,92.55,32488
237,92.6092,92.6092,92.52,92.52,5638
238,92.6,92.62,92.57,92.62,6800
239,92.599,92.6,92.59,92.59,1400
240,92.58,92.58,92.54,92.56,5218
241,92.55,92.6,92.54,92.56,12180
242,92.59,92.59,92.54,92.55,11823
243,92.605,92.61,92.59,92.59,1800
244,92.62,92.63,92.61,92.62,3398
245,92.6,92.61,92.6,92.61,854
246,92.57,92.61,92.56,92.61,2300
247,92.55,92.57,92.55,92.57,1100
248,92.52,92.55,92.51,92.55,28943
249,92.56,92.59,92.51,92.51,10202
250,92.525,92.57,92.51,92.56,3614
251,92.51,92.525,92.5,92.525,9328
252,92.53,92.55,92.49,92.51,21252
253,92.5,92.53,92.5,92.53,5510
254,92.51,92.52,92.48,92.5,6243
255,92.51,92.52,92.48,92.52,2550
256,92.5,92.5137,92.48,92.5137,5440
257,92.48,92.51,92.47,92.5,6600
258,92.48,92.5,92.47,92.5,11838
259,92.5,92.5,92.47,92.48,1710
260,92.49,92.53,92.49,92.51,5237
261,92.49,92.54,92.49,92.49,5040
262,92.49,92.52,92.49,92.5,2100
263,92.49,92.5154,92.49,92.5154,2000
264,92.495,92.5,92.47,92.49,7700
265,92.5,92.51,92.46,92.492,6000
266,92.51,92.52,92.49,92.51,1700
267,92.505,92.51,92.49,92.5,1609
268,92.5,92.515,92.48,92.505,1878
269,92.495,92.5,92.48,92.48,900
270,92.5099,92.5099,92.48,92.507,772
271,92.48,92.51,92.48,92.51,4658
272,92.48,92.51,92.48,92.51,200
273,92.4938,92.53,92.48,92.51,6253
274,92.46,92.51,92.46,92.51,4105
275,92.44,92.51,92.44,92.5,13455
276,92.51,92.52,92.46,92.48,2389
277,92.56,92.56,92.51,92.53,3203
278,92.61,92.61,92.5716,92.5716,2169
279,92.61,92.63,92.59,92.605,7400
280,92.52,92.615,92.52,92.611,4105
281,92.55,92.58,92.52,92.53,5827
282,92.55,92.585,92.55,92.565,3200
283,92.59,92.6,92.54,92.55,4925
284,92.58,92.64,92.58,92.59,4300
285,92.565,92.595,92.55,92.58,2600
286,92.54,92.59,92.54,92.55,2900
287,92.59,92.61,92.54,92.58,23481
288,92.6,92.61,92.59,92.6,3000
289,92.66,92.67,92.59,92.6,17093
290,92.71,92.71,92.66,92.66,6974
291,92.64,92.71,92.64,92.69,4043
292,92.65,92.67,92.59,92.64,1800
293,92.56,92.6195,92.56,92.6195,2907
294,92.6,92.6,92.53,92.54,2550
295,92.51,92.61,92.51,92.6,2918
296,92.52,92.56,92.49,92.5,3723
297,92.55,92.56,92.49,92.539,3427
298,92.55,92.58,92.55,92.55,2200
299,92.58,92.59,92.56,92.56,1200
300,92.56,92.58,92.53,92.55,1600
301,92.58,92.58,92.53,92.54,1800
302,92.54,92.575,92.49,92.575,5500
303,92.52,92.56,92.52,92.55,4000
304,92.53,92.55,92.52,92.53,8100
305,92.51,92.53,92.51,92.52,1100
306,92.5,92.54,92.49,92.52,6073
307,92.515,92.53,92.46,92.49,19142
308,92.51,92.52,92.5,92.5,5900
309,92.53,92.54,92.5,92.52,4601
310,92.56,92.59,92.53,92.53,4590
311,92.5935,92.5935,92.55,92.55,1928
312,92.59,92.6,92.57,92.6,3700
313,92.6,92.62,92.59,92.59,2884
314,92.51,92.6,92.51,92.6,2099
315,92.52,92.5316,92.52,92.52,4480
316,92.5418,92.56,92.51,92.51,8572
317,92.55,92.57,92.52,92.52,1924
318,92.6,92.6,92.56,92.56,3618
319,92.6,92.6,92.58,92.6,5201
320,92.59,92.61,92.59,92.61,1703
321,92.55,92.58,92.52,92.57,6516
322,92.52,92.54,92.52,92.54,956
323,92.6,92.6,92.53,92.53,2005
324,92.57,92.62,92.57,92.58,6651
325,92.55,92.57,92.55,92.56,1000
326,92.54,92.61,92.54,92.57,3940
327,92.555,92.5699,92.55,92.5699,1003
328,92.6,92.6,92.555,92.555,1900
329,92.545,92.59,92.545,92.58,7542
330,92.51,92.55,92.51,92.55,2900
331,92.53,92.54,92.52,92.52,11797
332,92.5,92.55,92.47,92.53,17768
333,92.51,92.52,92.49,92.5,10574
334,92.425,92.52,92.42,92.52,20540
335,92.46,92.5,92.43,92.44,15304
336,92.45,92.47,92.41,92.46,13729
337,92.45,92.49,92.42,92.43,11650
338,92.435,92.47,92.43,92.4402,5406
339,92.45,92.46,92.4,92.42,21962
340,92.36,92.46,92.34,92.45,43363
341,92.35,92.38,92.35,92.36,16672
342,92.34,92.37,92.33,92.35,4321
343,92.42,92.42,92.35,92.36,4068
344,92.45,92.45,92.43,92.43,4844
345,92.43,92.44,92.41,92.43,3622
346,92.45,92.46,92.423,92.44,8416
347,92.5,92.52,92.44,92.46,5357
348,92.5,92.51,92.47,92.5,6453
349,92.51,92.51,92.48,92.51,6288
350,92.55,92.55,92.51,92.51,5427
351,92.55,92.57,92.53,92.57,4400
352,92.56,92.57,92.53,92.55,4197
353,92.59,92.61,92.56,92.57,5600
354,92.627,92.63,92.56,92.58,5812
355,92.68,92.69,92.615,92.615,4500
356,92.69,92.6982,92.68,92.68,2682
357,92.68,92.69,92.66,92.69,7100
358,92.65,92.68,92.65,92.6782,4141
359,92.69,92.69,92.63,92.67,7449
360,92.71,92.73,92.69,92.69,7665
361,92.6501,92.69,92.64,92.69,4601
362,92.69,92.69,92.61,92.66,11865
363,92.67,92.68,92.66,92.68,3479
364,92.62,92.67,92.62,92.67,3652
365,92.6873,92.688,92.62,92.62,5472
366,92.74,92.75,92.68,92.69,7669
367,92.74,92.75,92.7201,92.74,5086
368,92.7101,92.73,92.71,92.73,5238
369,92.69,92.72,92.69,92.71,6516
370,92.69,92.71,92.69,92.7,3700
371,92.71,92.73,92.68,92.69,7438
372,92.705,92.725,92.695,92.725,14347
373,92.69,92.71,92.685,92.7,3554
374,92.68,92.71,92.67,92.69,22489
375,92.65,92.68,92.64,92.68,6552
376,92.66,92.68,92.64,92.64,11043
377,92.585,92.6542,92.585,92.65,9355
378,92.595,92.61,92.58,92.59,12274
379,92.62,92.62,92.6,92.608,8289
380,92.61,92.62,92.6,92.61,5478
381,92.69,92.71,92.61,92.62,13817
382,92.69,92.7,92.67,92.68,7554
383,92.71,92.73,92.67,92.6701,11059
384,92.68,92.72,92.67,92.71,9628
385,92.68,92.69,92.67,92.68,5802
386,92.6348,92.68,92.6348,92.676,8595
387,92.61,92.65,92.61,92.64,11710
388,92.64,92.65,92.59,92.62,13930
389,92.71,92.71,92.63,92.64,21457
390,92.67,92.72,92.64,92.7,45273
