PPG,PPG Industries,Materials,8,Specialty Chemicals,27469783549,1208969
a1495632600,106.8,106.8,106.8,106.8,6672
1,106.35,106.35,106.18,106.2,300
2,106.6,106.6,106.6,106.6,100
3,106.65,106.66,106.65,106.66,200
4,106.6,106.71,106.6,106.71,400
5,106.49,106.49,106.49,106.49,100
6,106.82,106.82,106.555,106.63,3537
7,106.92,106.92,106.71,106.71,300
8,106.9333,106.9333,106.9333,106.9333,118
9,106.82,106.89,106.82,106.89,802
10,106.84,106.84,106.69,106.79,500
11,106.75,106.82,106.66,106.76,3599
12,106.85,106.85,106.79,106.84,600
13,106.9,106.92,106.9,106.91,800
14,106.86,106.96,106.86,106.95,1264
15,106.92,106.95,106.88,106.92,1300
16,106.9,106.97,106.86,106.86,3560
17,106.81,106.9,106.81,106.9,1200
18,106.87,106.91,106.77,106.77,1600
19,106.85,106.97,106.85,106.85,3220
20,106.76,106.86,106.76,106.86,300
21,106.89,106.89,106.84,106.86,500
22,106.71,106.85,106.71,106.84,600
23,106.83,106.83,106.74,106.74,500
24,106.9,106.9,106.83,106.83,300
25,106.82,106.88,106.74,106.88,2130
26,106.82,106.88,106.82,106.84,500
27,106.77,106.83,106.7,106.83,2500
28,106.77,106.77,106.77,106.77,200
29,106.7,106.74,106.7,106.74,1029
30,106.79,106.82,106.67,106.7,3100
31,106.7,106.81,106.65,106.78,3300
32,106.74,106.74,106.67,106.68,775
33,106.86,106.88,106.775,106.78,1000
34,106.85,106.875,106.85,106.875,700
35,106.77,106.81,106.77,106.81,1178
36,106.77,106.77,106.77,106.77,100
37,106.95,106.95,106.83,106.83,1000
38,107.115,107.115,106.97,106.97,1474
39,107.0461,107.09,107.04,107.09,1731
40,107.07,107.07,107.06,107.06,400
41,107.0634,107.075,107.0634,107.075,201
42,107,107.06,106.92,107.06,1401
44,107.03,107.03,107.01,107.01,300
45,107.08,107.11,107.06,107.07,1600
46,107.04,107.1,107.04,107.1,500
47,107.03,107.04,107.02,107.03,900
48,107.07,107.08,106.99,106.99,900
49,107.04,107.11,107.04,107.09,1200
51,107.0225,107.0225,106.96,106.96,1505
52,106.94,106.98,106.94,106.98,477
53,106.97,106.98,106.96,106.97,1300
54,106.97,107.01,106.95,106.96,1110
55,107.03,107.03,107.0294,107.0294,238
56,106.91,107.01,106.91,107.01,1570
57,106.94,106.97,106.94,106.94,945
58,107.0699,107.0699,107.01,107.05,1115
59,107.04,107.09,107.04,107.09,501
60,107.05,107.05,107.04,107.05,600
62,107.1,107.1,107.1,107.1,200
63,107.15,107.17,107.09,107.11,2200
64,107.25,107.25,107.219,107.219,1150
65,107.2,107.26,107.2,107.25,600
66,107.12,107.16,107.12,107.15,600
67,107.11,107.13,107.11,107.13,200
68,107.19,107.19,107.125,107.14,800
69,107.27,107.27,107.22,107.24,900
70,107.25,107.28,107.24,107.28,1300
71,107.265,107.27,107.265,107.2681,312
72,107.31,107.31,107.27,107.27,500
73,107.31,107.36,107.31,107.36,401
74,107.28,107.33,107.26,107.3,2902
75,107.33,107.33,107.31,107.31,500
76,107.33,107.33,107.33,107.33,100
77,107.4,107.4,107.33,107.33,2100
78,107.4,107.4,107.38,107.38,200
79,107.39,107.42,107.38,107.38,1000
80,107.365,107.4,107.34,107.38,2450
81,107.36,107.36,107.34,107.34,1000
82,107.4,107.41,107.35,107.35,1863
83,107.4001,107.4001,107.4001,107.4001,125
84,107.41,107.44,107.41,107.44,400
85,107.39,107.41,107.39,107.4,1300
86,107.36,107.36,107.36,107.36,300
87,107.39,107.4,107.38,107.39,800
88,107.385,107.385,107.38,107.38,200
90,107.38,107.4,107.35,107.36,1092
91,107.31,107.37,107.26,107.36,2532
92,107.31,107.31,107.28,107.29,880
93,107.34,107.34,107.28,107.28,2730
94,107.3,107.31,107.3,107.31,300
96,107.34,107.34,107.31,107.31,798
98,107.34,107.35,107.34,107.35,300
100,107.3,107.33,107.3,107.33,1200
101,107.3,107.3,107.29,107.29,1000
102,107.29,107.29,107.29,107.29,100
103,107.3251,107.3251,107.29,107.29,1400
104,107.29,107.3,107.29,107.3,200
106,107.25,107.27,107.25,107.27,300
107,107.245,107.245,107.245,107.245,100
108,107.24,107.24,107.24,107.24,200
111,107.215,107.215,107.215,107.215,100
112,107.2,107.2,107.2,107.2,700
113,107.29,107.29,107.22,107.22,1100
115,107.33,107.33,107.33,107.33,100
116,107.335,107.335,107.335,107.335,100
117,107.28,107.31,107.28,107.31,1000
118,107.27,107.27,107.27,107.27,100
119,107.265,107.265,107.265,107.265,100
120,107.25,107.25,107.24,107.25,400
121,107.31,107.31,107.26,107.26,1200
122,107.315,107.315,107.315,107.315,400
123,107.29,107.29,107.29,107.29,400
124,107.26,107.2868,107.26,107.2868,308
125,107.26,107.26,107.26,107.26,100
126,107.25,107.25,107.25,107.25,400
127,107.2175,107.24,107.2175,107.24,910
128,107.21,107.21,107.21,107.21,100
131,107.16,107.21,107.16,107.21,1500
133,107.18,107.19,107.15,107.15,1300
134,107.1905,107.1905,107.1905,107.1905,324
135,107.23,107.23,107.21,107.21,500
136,107.25,107.25,107.2,107.2,300
137,107.2,107.2,107.2,107.2,100
138,107.21,107.21,107.21,107.21,200
139,107.2,107.2,107.2,107.2,200
140,107.22,107.22,107.22,107.22,100
141,107.16,107.18,107.16,107.18,449
143,107.1225,107.1225,107.1225,107.1225,100
145,107.08,107.1,107.07,107.1,1019
146,107.05,107.08,107.05,107.08,200
147,107.05,107.05,107.05,107.05,220
149,107.02,107.02,107.02,107.02,100
150,106.99,107.03,106.98,107.02,400
152,106.97,106.97,106.97,106.97,200
153,107.01,107.04,107.01,107.02,1053
155,107.05,107.08,107.03,107.08,1600
156,107.055,107.055,107.055,107.055,100
157,107.115,107.115,107.1,107.11,300
159,107.1,107.1,107.1,107.1,100
160,107.14,107.14,107.109,107.109,561
161,107.1,107.13,107.1,107.11,2560
162,107.0675,107.09,107.062,107.09,1038
163,107.07,107.07,107.06,107.065,900
164,107.1,107.1,107.1,107.1,200
165,107.09,107.09,107.08,107.0883,1770
166,107.1,107.1,107.09,107.09,602
168,107.085,107.085,107.085,107.085,200
169,107.095,107.095,107.095,107.095,100
171,107.0825,107.0951,107.0825,107.0951,1505
172,107.11,107.11,107.075,107.09,800
173,107.16,107.16,107.139,107.139,326
174,107.1668,107.1668,107.1668,107.1668,191
175,107.2078,107.2078,107.18,107.18,337
177,107.14,107.15,107.13,107.15,1300
179,107.145,107.145,107.145,107.145,100
180,107.18,107.21,107.15,107.15,2700
181,107.18,107.18,107.1729,107.1729,200
182,107.18,107.191,107.17,107.191,1000
183,107.17,107.17,107.16,107.16,1505
185,107.14,107.14,107.12,107.13,400
186,107.12,107.13,107.12,107.12,1115
187,107.13,107.13,107.11,107.11,900
188,107.14,107.15,107.13,107.14,1611
189,107.15,107.15,107.14,107.14,600
190,107.165,107.165,107.15,107.15,400
191,107.15,107.16,107.15,107.16,200
192,107.17,107.17,107.15,107.15,2500
193,107.2,107.2,107.179,107.179,1319
194,107.22,107.23,107.2,107.2,2450
195,107.19,107.19,107.19,107.19,100
196,107.219,107.219,107.18,107.2,800
197,107.23,107.23,107.21,107.23,739
198,107.26,107.26,107.25,107.25,400
200,107.25,107.26,107.24,107.25,600
202,107.235,107.235,107.235,107.235,100
203,107.25,107.25,107.25,107.25,200
205,107.225,107.225,107.225,107.225,300
206,107.21,107.24,107.21,107.24,996
207,107.16,107.2,107.16,107.2,400
209,107.135,107.135,107.135,107.135,100
210,107.15,107.15,107.13,107.13,800
211,107.14,107.14,107.135,107.135,200
213,107.17,107.17,107.165,107.165,200
214,107.13,107.14,107.13,107.13,600
215,107.11,107.11,107.11,107.11,100
216,107.17,107.17,107.12,107.13,500
217,107.14,107.1425,107.12,107.12,300
218,107.15,107.15,107.135,107.135,400
220,107.15,107.15,107.15,107.15,100
221,107.18,107.18,107.17,107.17,600
222,107.175,107.2,107.175,107.18,2650
223,107.19,107.21,107.18,107.18,2900
224,107.15,107.18,107.15,107.18,600
226,107.18,107.18,107.18,107.18,200
227,107.15,107.17,107.15,107.17,300
228,107.145,107.145,107.145,107.145,100
229,107.12,107.12,107.12,107.12,100
231,107.09,107.12,107.09,107.11,700
232,107.09,107.09,107.09,107.09,200
233,107.09,107.09,107.09,107.09,100
234,107.085,107.085,107.085,107.085,100
235,107.1,107.12,107.1,107.1,722
236,107.1,107.12,107.08,107.1,3500
237,107.11,107.13,107.1,107.1,1100
238,107.14,107.14,107.14,107.14,100
239,107.1597,107.1597,107.1597,107.1597,385
240,107.12,107.17,107.12,107.16,1796
241,107.12,107.12,107.11,107.11,400
244,107.16,107.16,107.14,107.14,1142
245,107.155,107.16,107.155,107.16,200
246,107.15,107.15,107.15,107.15,100
247,107.15,107.15,107.14,107.14,200
248,107.145,107.145,107.145,107.145,100
250,107.16,107.17,107.155,107.17,1000
251,107.16,107.16,107.16,107.16,200
252,107.11,107.15,107.1,107.15,1611
253,107.1,107.11,107.1,107.11,500
254,107.12,107.13,107.12,107.12,800
255,107.14,107.14,107.115,107.115,700
256,107.14,107.145,107.1295,107.145,2464
258,107.135,107.135,107.135,107.135,200
260,107.14,107.14,107.12,107.12,1816
261,107.16,107.17,107.14,107.14,1400
262,107.145,107.16,107.14,107.16,722
264,107.08,107.12,107.06,107.12,700
265,107.07,107.07,107.07,107.07,100
266,107.0981,107.0981,107.073,107.073,345
267,107.0876,107.0876,107.0864,107.0864,710
268,107.08,107.1,107.08,107.09,1100
269,107.1,107.1,107.1,107.1,300
270,107.09,107.1281,107.09,107.1281,561
271,107.09,107.09,107.09,107.09,200
272,107.07,107.07,107.06,107.06,800
273,107.12,107.12,107.06,107.07,500
274,107.05,107.09,107.05,107.09,1398
275,106.92,107.02,106.91,107.02,2423
276,106.93,106.97,106.92,106.97,301
277,107.01,107.01,106.96,106.96,700
278,106.99,107,106.97,106.99,1700
279,106.98,106.98,106.98,106.98,750
280,106.962,106.965,106.94,106.965,1008
281,106.97,106.99,106.97,106.98,1015
283,107.01,107.02,107.01,107.01,600
284,107.03,107.08,107.03,107.05,1577
286,107.05,107.05,107.03,107.04,1040
287,107.08,107.08,107.08,107.08,200
288,107.07,107.07,107.07,107.07,100
289,107.09,107.09,107.09,107.09,100
291,107.07,107.1001,107.07,107.1001,500
292,107.07,107.07,107.07,107.07,100
294,107.01,107.07,107.01,107.07,1300
295,107.04,107.04,107,107,2134
296,107.03,107.05,107.03,107.05,500
297,107.0401,107.07,107.035,107.035,646
298,107.03,107.04,107.03,107.04,400
299,107.0101,107.031,107.0101,107.031,226
301,106.9801,107.02,106.98,107.02,685
303,106.9677,107.03,106.9677,107,7823
304,106.99,107,106.99,106.99,1642
305,106.98,106.98,106.96,106.97,300
307,106.97,106.97,106.95,106.96,1433
308,106.99,106.99,106.98,106.98,486
311,106.95,106.97,106.95,106.97,300
314,106.94,106.94,106.91,106.91,1100
315,106.9,106.92,106.9,106.92,600
316,106.92,106.92,106.91,106.91,700
317,106.883,106.91,106.883,106.91,889
318,106.92,106.92,106.9,106.9,871
319,106.91,106.91,106.88,106.91,800
320,106.92,106.92,106.91,106.91,701
321,106.9,106.9,106.9,106.9,300
322,106.884,106.903,106.884,106.903,267
323,106.87,106.87,106.87,106.87,200
324,106.86,106.86,106.86,106.86,600
325,106.8334,106.85,106.8334,106.85,313
326,106.82,106.83,106.805,106.82,2150
327,106.82,106.82,106.82,106.82,100
328,106.8305,106.8305,106.82,106.83,800
329,106.85,106.85,106.85,106.85,200
330,106.81,106.85,106.81,106.85,1325
331,106.8286,106.83,106.8286,106.83,758
333,106.8492,106.85,106.8492,106.85,526
334,106.8389,106.84,106.8389,106.84,525
335,106.82,106.82,106.82,106.82,300
336,106.8,106.83,106.8,106.83,1862
337,106.73,106.77,106.73,106.77,900
339,106.77,106.77,106.75,106.75,1174
340,106.76,106.78,106.76,106.78,1000
341,106.73,106.76,106.73,106.76,500
342,106.76,106.76,106.76,106.76,319
343,106.79,106.79,106.7575,106.76,1626
344,106.92,106.93,106.83,106.83,5153
345,106.93,106.94,106.92,106.94,1000
346,106.9314,106.95,106.93,106.93,937
347,106.95,106.95,106.93,106.94,1289
348,106.92,106.94,106.92,106.94,1000
349,106.91,106.91,106.91,106.91,200
350,106.86,106.9,106.84,106.9,1948
351,106.91,106.91,106.87,106.87,200
352,106.93,106.93,106.93,106.93,300
353,106.93,106.94,106.92,106.92,1372
354,106.94,106.94,106.93,106.93,400
355,106.95,106.95,106.94,106.95,1200
356,106.95,106.959,106.94,106.959,460
357,106.94,106.94,106.92,106.94,1128
358,106.92,106.93,106.92,106.93,400
359,106.98,106.98,106.92,106.92,1900
360,106.98,106.99,106.98,106.98,1600
361,106.97,106.994,106.97,106.994,1616
362,107.02,107.02,106.95,106.95,1188
363,106.975,107.0101,106.975,107.0101,1715
364,106.99,106.99,106.99,106.99,937
365,107,107,106.97,106.99,899
366,107.03,107.06,107.005,107.005,2000
367,107.01,107.03,107.01,107.025,1300
368,107.01,107.01,106.9911,106.9911,434
369,106.97,107,106.97,107,1400
370,106.99,106.99,106.96,106.96,1015
371,107.02,107.02,106.995,106.995,2401
372,107.0001,107.01,106.98,107,838
373,107.01,107.01,107.01,107.01,300
374,107.03,107.03,107,107.02,1693
375,107.01,107.03,107.01,107.03,1490
376,106.99,107.01,106.98,107,1600
377,106.99,107,106.98,106.99,1400
378,106.995,106.995,106.995,106.995,400
379,107,107.015,106.995,106.995,3202
380,107.04,107.04,107.01,107.01,1900
381,107.035,107.05,107.02,107.04,1846
382,107.06,107.06,107.03,107.035,2950
383,107.11,107.11,107.07,107.07,892
384,107.09,107.11,107.08,107.11,1350
385,107.07,107.08,107.07,107.07,500
386,107.03,107.07,107.02,107.07,815
387,107.01,107.03,107,107.03,1401
388,106.98,107.01,106.98,107.01,1889
389,106.99,106.99,106.98,106.99,1000
390,106.94,106.98,106.9,106.98,7741
