EOG,EOG Resources,Energy,3,Oil & Gas Exploration & Production,52622473797,3148753
a1495719060,92.14,92.28,92.14,92.28,23713
1,92,92.12,92,92.08,4377
2,92.07,92.12,92.04,92.1,5336
3,92.26,92.27,92.05,92.06,8100
4,92.5,92.5,92.25,92.31,1721
5,92.62,92.62,92.43,92.57,7800
6,92.6264,92.6264,92.5,92.51,6725
7,92.72,92.72,92.55,92.71,7946
8,92.7899,92.7899,92.7899,92.7899,100
9,92.71,92.79,92.71,92.74,13500
10,92.81,92.81,92.75,92.75,5458
11,92.74,92.8,92.74,92.8,5300
12,92.88,92.88,92.78,92.78,21487
13,92.93,92.94,92.83,92.88,7800
14,92.93,92.935,92.89,92.93,5030
15,92.93,92.93,92.87,92.91,2617
16,93,93.02,92.84,92.89,11902
17,93.26,93.31,93,93,6300
18,93.36,93.36,93.248,93.285,6961
19,93.405,93.46,93.31,93.36,4526
20,93.41,93.43,93.27,93.43,5327
21,93.52,93.52,93.41,93.41,1745
22,93.54,93.57,93.51,93.53,3950
23,93.435,93.53,93.39,93.53,1467
24,93.4999,93.4999,93.44,93.44,450
25,93.5,93.54,93.47,93.5,2200
26,93.6,93.6,93.53,93.53,1134
27,93.37,93.62,93.37,93.62,5700
28,93.2993,93.3744,93.2993,93.35,1705
29,93.235,93.27,93.23,93.26,784
30,93.33,93.36,93.24,93.27,4000
31,93.27,93.37,93.27,93.36,2200
32,93.23,93.27,93.17,93.27,2462
33,93.07,93.27,93.02,93.23,2200
34,93.04,93.1,93,93.1,800
35,93.0448,93.0448,92.97,92.97,1100
36,93.03,93.07,93.03,93.07,1854
37,92.96,93.03,92.96,93,707
38,92.97,93,92.96,93,1400
39,92.89,92.94,92.86,92.94,1700
40,92.97,93.01,92.885,92.89,7699
41,93.06,93.06,92.91,92.96,3900
42,93.14,93.15,93.07,93.07,11733
43,93.02,93.143,92.99,93.143,3036
44,92.97,93.07,92.95,93.0451,3165
45,92.97,93.01,92.94,92.94,2750
46,92.7501,92.94,92.72,92.94,1100
47,92.83,92.83,92.72,92.755,1600
48,92.81,92.82,92.81,92.82,300
49,92.7374,92.78,92.7374,92.78,912
50,92.78,92.81,92.78,92.79,2186
51,92.71,92.76,92.71,92.76,700
52,92.58,92.7,92.58,92.69,10018
53,92.64,92.67,92.6058,92.62,3095
54,92.66,92.66,92.62,92.64,2180
55,92.7,92.74,92.68,92.68,14990
56,92.73,92.73,92.6644,92.69,8597
57,92.715,92.73,92.69,92.73,5809
58,92.7,92.7273,92.7,92.7,2417
59,92.64,92.7,92.64,92.69,10475
60,92.67,92.68,92.62,92.67,7068
61,92.82,92.82,92.725,92.73,7882
62,92.71,92.79,92.69,92.76,22767
63,92.77,92.77,92.71,92.7113,6277
64,92.75,92.81,92.74,92.75,2385
65,92.895,92.9,92.77,92.77,3718
66,92.99,92.99,92.88,92.895,4300
67,93.04,93.04,93,93,1900
68,93.01,93.04,92.96,93.04,5700
69,93.05,93.05,92.97,93.01,6242
70,93.05,93.06,93.03,93.06,1000
71,93.11,93.11,93.0105,93.0105,2000
72,93.04,93.085,93.02,93.07,1417
73,93,93.07,93,93.031,3600
74,92.97,93,92.97,92.995,5700
75,93.05,93.07,92.96,92.97,6690
76,93.0736,93.0736,93.041,93.06,850
77,93.17,93.17,93.0986,93.0986,2100
78,93.14,93.17,93.11,93.16,6730
79,93.15,93.15,93.12,93.13,5720
80,93.1,93.155,93.09,93.14,2511
81,93.03,93.06,93.01,93.06,3776
82,93.09,93.12,93.04,93.04,4325
83,93.08,93.08,93.05,93.06,1223
84,92.96,93.06,92.96,93.06,3923
85,92.87,92.99,92.87,92.95,21576
86,92.795,92.85,92.77,92.83,600
87,92.75,92.83,92.75,92.82,1700
88,92.73,92.74,92.73,92.735,700
89,92.61,92.71,92.61,92.71,3308
90,92.57,92.61,92.54,92.57,7130
91,92.5525,92.58,92.53,92.572,3375
92,92.6,92.61,92.5366,92.57,9351
93,92.56,92.58,92.55,92.58,6846
94,92.6,92.63,92.58,92.58,7393
95,92.72,92.72,92.61,92.62,1700
96,92.701,92.76,92.7,92.74,4035
97,92.88,92.9,92.72,92.72,2696
98,92.83,92.89,92.8,92.89,2729
99,92.8128,92.86,92.8128,92.85,1100
100,92.87,92.89,92.82,92.82,1039
101,92.82,92.83,92.77,92.83,1590
102,92.8151,92.8151,92.8151,92.8151,251
103,92.65,92.77,92.61,92.76,2000
104,92.56,92.62,92.55,92.62,1174
105,92.65,92.65,92.58,92.58,2502
106,92.65,92.65,92.6,92.63,2801
107,92.65,92.69,92.65,92.65,1250
108,92.52,92.66,92.52,92.66,2300
109,92.52,92.55,92.52,92.52,2001
110,92.53,92.56,92.46,92.48,10546
111,92.51,92.57,92.51,92.52,9053
112,92.45,92.54,92.43,92.51,11470
113,92.41,92.47,92.3,92.47,9626
114,92.18,92.48,92.16,92.43,12029
115,92.09,92.19,92.09,92.18,2017
116,92.07,92.11,92.01,92.11,4366
117,92.14,92.16,92,92.04,6600
118,92.22,92.26,92.18,92.18,1215
119,92.42,92.42,92.26,92.26,616
120,92.26,92.3947,92.25,92.3947,2002
121,92.16,92.24,92.16,92.24,1802
122,92.135,92.23,92.11,92.18,2579
123,92,92.13,92,92.1,2799
124,92,92.03,91.97,91.98,8071
125,92,92.06,91.99,92,4244
126,91.8,91.98,91.8,91.98,7120
127,91.73,91.87,91.73,91.8419,3000
128,91.82,91.8299,91.69,91.7,14130
129,91.745,91.855,91.745,91.81,5820
130,91.64,91.735,91.605,91.7,7461
131,91.6822,91.69,91.62,91.62,2831
132,91.79,91.79,91.67,91.68,1900
133,91.69,91.79,91.69,91.7713,7654
134,91.3356,91.65,91.33,91.65,18443
135,91.28,91.35,91.22,91.32,9076
136,91.43,91.43,91.28,91.28,7514
137,91.36,91.41,91.31,91.39,2992
138,91.655,91.655,91.36,91.38,29368
139,91.5925,91.69,91.55,91.68,6675
140,91.58,91.62,91.58,91.61,1467
141,91.695,91.7,91.54,91.55,38370
142,91.68,91.71,91.625,91.695,13388
143,91.69,91.78,91.66,91.69,7127
144,91.59,91.72,91.59,91.7,11022
145,91.49,91.59,91.46,91.59,10117
146,91.67,91.67,91.53,91.53,3100
147,91.58,91.66,91.58,91.66,4626
148,91.53,91.66,91.53,91.57,2875
149,91.57,91.57,91.49,91.503,2226
150,91.59,91.59,91.51,91.51,1600
151,91.66,91.69,91.5882,91.62,4080
152,91.78,91.83,91.68,91.68,2422
153,91.87,91.95,91.8,91.8,5927
154,91.95,91.95,91.86,91.88,6201
155,91.85,91.91,91.81,91.91,2726
156,91.66,91.87,91.66,91.86,3400
157,91.63,91.72,91.6,91.6599,7610
158,91.61,91.63,91.57,91.63,9189
159,91.66,91.66,91.595,91.63,13100
160,91.62,91.68,91.58,91.65,13079
161,91.62,91.64,91.5492,91.61,27804
162,91.6,91.68,91.59,91.59,4784
163,91.59,91.66,91.57,91.58,3850
164,91.4799,91.6,91.47,91.6,7525
165,91.455,91.48,91.39,91.47,7250
166,91.425,91.49,91.33,91.455,14799
167,91.36,91.45,91.36,91.425,10863
168,91.3599,91.4,91.335,91.36,5900
169,91.39,91.39,91.34,91.34,8630
170,91.37,91.42,91.35,91.38,6700
171,91.45,91.45,91.335,91.36,2692
172,91.43,91.45,91.4,91.43,4903
173,91.46,91.46,91.4,91.41,2143
174,91.4901,91.5,91.4441,91.46,5906
175,91.58,91.58,91.4701,91.49,5043
176,91.55,91.565,91.52,91.565,1350
177,91.55,91.57,91.515,91.54,1405
178,91.6,91.62,91.54,91.54,4246
179,91.56,91.6,91.53,91.6,4501
180,91.65,91.67,91.58,91.58,4250
181,91.64,91.71,91.63,91.6501,2056
182,91.66,91.67,91.62,91.62,1295
183,91.64,91.65,91.62,91.65,700
184,91.64,91.64,91.57,91.6248,3364
185,91.65,91.66,91.61,91.62,19235
186,91.62,91.69,91.62,91.64,6806
187,91.59,91.62,91.54,91.62,2800
188,91.57,91.58,91.57,91.57,700
189,91.56,91.57,91.54,91.55,1900
190,91.51,91.58,91.51,91.57,4438
191,91.5,91.52,91.45,91.52,3630
192,91.61,91.61,91.49,91.51,6821
193,91.68,91.69,91.62,91.62,1068
194,91.63,91.67,91.6,91.67,4433
195,91.645,91.65,91.6,91.62,1983
196,91.62,91.659,91.61,91.659,2100
197,91.6,91.62,91.59,91.605,1900
198,91.6,91.62,91.59,91.62,2000
199,91.58,91.6,91.54,91.6,1950
200,91.54,91.6,91.54,91.59,4100
201,91.55,91.55,91.5,91.53,2360
202,91.5835,91.6,91.5217,91.5217,1584
203,91.52,91.55,91.51,91.55,2159
204,91.5,91.54,91.5,91.5175,1601
205,91.4313,91.49,91.41,91.49,3150
206,91.34,91.41,91.34,91.4,3091
207,91.33,91.38,91.33,91.34,1000
208,91.36,91.37,91.3375,91.34,2100
209,91.36,91.39,91.35,91.37,1500
210,91.34,91.34,91.26,91.33,4275
211,91.33,91.3365,91.31,91.31,500
212,91.26,91.33,91.23,91.33,32825
213,91.23,91.27,91.22,91.2698,2450
214,91.14,91.2633,91.14,91.2633,4159
215,91.16,91.24,91.16,91.16,4550
216,91.2,91.2,91.1575,91.19,13292
217,91.2189,91.23,91.195,91.195,3950
218,91.215,91.23,91.19,91.215,6060
219,91.24,91.26,91.2178,91.23,2550
220,91.17,91.24,91.17,91.24,9259
221,91.2,91.2,91.15,91.18,12132
222,91.23,91.23,91.173,91.2,2312
223,91.25,91.26,91.23,91.2356,3642
224,91.26,91.26,91.24,91.25,2059
225,91.21,91.255,91.19,91.24,10800
226,91.17,91.23,91.17,91.21,7700
227,91.24,91.24,91.14,91.14,8300
228,91.31,91.31,91.24,91.24,4409
229,91.26,91.305,91.24,91.29,3550
230,91.25,91.26,91.24,91.25,4110
231,91.25,91.28,91.25,91.2655,3053
232,91.29,91.29,91.25,91.25,2900
233,91.19,91.27,91.19,91.27,3400
234,91.2141,91.22,91.19,91.2,3592
235,91.11,91.19,91.11,91.19,2750
236,91.12,91.13,91.095,91.1,4362
237,91.13,91.16,91.1283,91.1283,1710
238,91.11,91.14,91.1,91.1286,1900
239,91.07,91.12,91.07,91.12,1100
240,91,91.07,90.96,91.07,14458
241,90.9803,91.01,90.97,91.01,1892
242,91.03,91.03,90.95,90.98,1800
243,90.96,91.0095,90.96,91.0095,910
244,90.975,90.99,90.955,90.96,1700
245,90.97,90.9897,90.96,90.9889,2342
246,90.99,91.01,90.9775,90.99,1800
247,90.98,91,90.98,91,1001
248,90.94,90.99,90.94,90.96,1801
249,90.87,90.94,90.87,90.93,9764
250,90.9,90.91,90.88,90.88,2900
251,90.92,90.92,90.89,90.89,1600
252,90.93,90.93,90.895,90.9,3300
253,90.86,90.94,90.85,90.9302,2862
254,90.9,90.9,90.8301,90.85,2104
255,90.84,90.89,90.84,90.88,1418
256,90.8571,90.87,90.84,90.8598,2000
257,90.87,90.9,90.86,90.86,3286
258,90.76,90.85,90.75,90.85,11986
259,90.77,90.78,90.73,90.73,2700
260,90.8,90.8,90.77,90.7733,3120
261,90.9,90.9,90.79,90.79,3218
262,90.875,90.875,90.875,90.875,100
263,90.86,90.89,90.85,90.875,2100
264,90.85,90.85,90.78,90.83,3154
265,90.9,90.9,90.85,90.85,3700
266,90.91,90.92,90.9,90.9,1406
267,90.99,90.99,90.93,90.93,2947
268,91.06,91.08,91.02,91.02,5000
269,91.18,91.18,91.09,91.09,1872
270,91.205,91.21,91.18,91.19,2202
271,91.22,91.22,91.18,91.1903,7867
272,91.27,91.27,91.22,91.22,2300
273,91.17,91.27,91.16,91.26,3071
274,91.19,91.19,91.17,91.17,800
275,91.27,91.27,91.16,91.17,1700
276,91.25,91.26,91.23,91.24,3156
277,91.29,91.29,91.25,91.25,859
278,91.19,91.27,91.18,91.27,4671
279,91.24,91.24,91.19,91.21,3130
280,91.17,91.23,91.15,91.23,4740
281,91.2,91.2,91.14,91.16,9661
282,91.19,91.22,91.17,91.2,7139
283,91.12,91.2,91.1,91.19,9419
284,91.09,91.1,91.0675,91.1,3599
285,91.14,91.14,91.11,91.11,3569
286,91.16,91.16,91.13,91.14,1400
287,91.04,91.155,91.04,91.155,4729
288,91.03,91.08,91.03,91.05,2600
289,91.08,91.08,91.0275,91.03,5720
290,91.05,91.08,91.05,91.08,1700
291,91.07,91.08,91.02,91.03,3203
292,91.11,91.11,91.061,91.07,1846
293,91.12,91.1206,91.1,91.1,2400
294,91.07,91.1148,91.07,91.1148,800
295,91.1,91.11,91.07,91.07,3400
296,91.0294,91.12,91.0294,91.11,9001
297,90.96,91.02,90.96,91.02,2150
298,90.955,90.96,90.93,90.9445,2671
299,90.99,90.99,90.9342,90.9342,2543
300,90.97,91,90.97,91,3920
301,91.03,91.03,90.94,90.98,4326
302,91.05,91.05,91.0301,91.0301,300
303,91.034,91.09,91.03,91.05,5452
304,91.072,91.072,91.02,91.02,2100
305,91.07,91.07,91.05,91.06,1100
306,91.05,91.07,91.05,91.06,1500
307,90.94,91.06,90.94,91.05,2572
308,90.87,90.95,90.87,90.93,6241
309,90.9,90.93,90.87,90.87,5043
310,90.93,90.94,90.86,90.93,5481
311,90.9385,90.96,90.91,90.92,4962
312,90.82,90.92,90.8,90.92,28168
313,90.78,90.81,90.76,90.8,2200
314,90.74,90.78,90.72,90.75,11562
315,90.67,90.75,90.66,90.7436,4663
316,90.6,90.66,90.56,90.66,11187
317,90.47,90.61,90.44,90.6,6199
318,90.51,90.51,90.44,90.47,4000
319,90.53,90.54,90.49,90.51,11400
320,90.56,90.57,90.52,90.53,5844
321,90.55,90.575,90.53,90.56,7970
322,90.545,90.56,90.52,90.53,11227
323,90.6,90.6,90.55,90.56,8843
324,90.6472,90.65,90.6,90.61,3104
325,90.695,90.71,90.65,90.65,4828
326,90.64,90.695,90.63,90.695,4796
327,90.635,90.67,90.614,90.67,12425
328,90.59,90.63,90.56,90.63,8000
329,90.59,90.63,90.59,90.61,3780
330,90.69,90.72,90.6,90.6,3593
331,90.79,90.81,90.72,90.72,10768
332,90.83,90.85,90.78,90.78,2831
333,90.85,90.87,90.83,90.83,2068
334,90.87,90.875,90.85,90.86,7099
335,90.8,90.88,90.8,90.86,4400
336,90.87,90.8752,90.786,90.79,5638
337,90.94,90.95,90.86,90.88,3355
338,90.95,90.96,90.9,90.92,4819
339,91.045,91.045,90.96,90.96,1400
340,91.01,91.05,91,91.03,4488
341,91.14,91.14,91,91.01,3856
342,91.16,91.16,91.1,91.14,5900
343,91.205,91.21,91.155,91.155,3600
344,91.11,91.21,91.11,91.205,7740
345,91.15,91.16,91.1,91.11,4043
346,91.225,91.23,91.1372,91.1372,3100
347,91.27,91.27,91.19,91.21,4265
348,91.28,91.28,91.22,91.26,8349
349,91.26,91.31,91.26,91.26,6381
350,91.22,91.26,91.1875,91.26,4839
351,91.21,91.24,91.2,91.22,5906
352,91.2624,91.28,91.21,91.21,7817
353,91.29,91.3,91.24,91.25,5000
354,91.3,91.32,91.26,91.26,3600
355,91.23,91.31,91.23,91.31,2995
356,91.33,91.33,91.23,91.23,6212
357,91.3255,91.34,91.31,91.32,8151
358,91.31,91.33,91.3,91.3,1900
359,91.34,91.34,91.31,91.32,3584
360,91.26,91.34,91.215,91.33,14065
361,91.3,91.3,91.25,91.26,3244
362,91.26,91.29,91.25,91.29,8001
363,91.26,91.29,91.19,91.26,27738
364,91.16,91.26,91.16,91.26,9849
365,91.16,91.175,91.12,91.14,7931
366,91.17,91.17,91.135,91.145,3536
367,91.2,91.22,91.16,91.1644,10108
368,91.14,91.21,91.1078,91.21,10640
369,91.14,91.15,91.14,91.14,4001
370,91.06,91.14,91.06,91.14,9321
371,91.04,91.06,91.03,91.05,9255
372,91.03,91.06,91.0111,91.04,7842
373,90.97,91.04,90.96,91.035,16576
374,90.92,90.98,90.87,90.97,31195
375,91.04,91.05,90.91,90.91,49311
376,91.1,91.1,91.02,91.04,31338
377,91.17,91.19,91.08,91.1263,13128
378,91.18,91.18,91.14,91.174,11805
379,91.2,91.237,91.18,91.19,21800
380,91.095,91.2392,91.09,91.2,15330
381,91.115,91.125,91.1,91.1,9062
382,91.03,91.127,91.03,91.1,9455
383,91.005,91.03,91.005,91.03,6365
384,91.03,91.03,90.99,91.005,16510
385,91.06,91.08,91.04,91.04,11874
386,91.05,91.06,91.03,91.05,12043
387,90.9901,91.05,90.98,91.03,15457
388,90.99,90.995,90.97,90.99,15095
389,91,91.04,90.98,90.99,38185
