PPG,PPG Industries,Materials,8,Specialty Chemicals,27451613275,1187982
a1495719000,107.17,107.17,107.17,107.17,7262
3,106.9,107.17,106.9,107.17,1200
4,106.615,106.88,106.615,106.88,300
5,106.685,106.869,106.68,106.75,416
6,106.99,106.99,106.73,106.87,2300
8,107.13,107.26,107.05,107.23,1770
10,107.06,107.17,107.06,107.15,600
11,106.815,107.05,106.815,107.05,700
12,107.14,107.14,106.96,106.96,800
14,107.24,107.24,107.18,107.24,500
16,107.26,107.3,107.2,107.29,1902
17,107.32,107.32,107.25,107.25,600
18,107.42,107.42,107.41,107.41,500
19,107.48,107.48,107.46,107.46,300
20,107.49,107.5035,107.46,107.46,453
21,107.475,107.51,107.475,107.5,1001
23,107.475,107.475,107.475,107.475,100
24,107.31,107.44,107.31,107.44,1000
25,107.4,107.4,107.3,107.31,1500
26,107.42,107.42,107.365,107.365,400
27,107.31,107.4,107.3,107.4,2000
28,107.27,107.355,107.27,107.355,300
29,107.22,107.27,107.16,107.26,3900
30,107.28,107.28,107.27,107.27,300
32,107.22,107.24,107.22,107.24,300
33,107.2,107.2024,107.07,107.2,4316
34,107.03,107.22,107.03,107.22,1500
35,106.97,106.97,106.97,106.97,100
36,106.95,106.99,106.87,106.95,1632
37,107.02,107.02,106.94,106.94,601
39,107.04,107.06,107.005,107.005,1298
40,107.03,107.04,107.01,107.03,1100
41,107.21,107.21,107.07,107.07,2768
42,107.13,107.205,107.13,107.19,2200
43,107.1658,107.17,107.1658,107.17,1500
44,107.17,107.175,107.17,107.175,200
45,107.13,107.16,107.13,107.16,300
46,107,107.1,107,107.1,2600
47,107.05,107.05,107.04,107.04,400
48,107.16,107.16,107.03,107.03,2902
50,107.16,107.22,107.15,107.17,3100
51,107.17,107.21,107.17,107.18,3014
52,107.13,107.18,107.12,107.18,1169
53,107.115,107.115,107.115,107.115,200
54,107.16,107.17,107.12,107.14,2200
55,107.01,107.18,107.01,107.18,800
56,107.04,107.04,107.04,107.04,200
57,107,107.04,106.9532,107.02,5850
58,107.025,107.05,106.96,106.96,3070
59,107.005,107.005,106.9643,107,949
60,106.94,107,106.94,107,1600
61,107.01,107.01,106.94,106.97,1900
62,107.11,107.15,107.01,107.01,4532
63,107.105,107.13,107.1,107.1,1500
64,107.119,107.13,107.119,107.13,206
65,107.16,107.16,107.125,107.125,778
66,107.18,107.22,107.18,107.18,1200
67,107.14,107.23,107.12,107.23,2500
68,107.11,107.11,107.07,107.1,900
69,107.105,107.105,107.105,107.105,200
70,107.15,107.17,107.105,107.105,1617
71,107.13,107.16,107.13,107.16,200
72,106.95,107.13,106.95,107.13,1200
73,106.99,107,106.99,107,600
75,106.995,106.995,106.995,106.995,500
76,107.12,107.12,106.995,106.995,1758
78,107.065,107.18,107.065,107.18,1500
80,107.12,107.14,107.05,107.075,2000
82,107.135,107.16,107.135,107.16,300
83,107.14,107.16,107.14,107.16,600
84,107.14,107.14,107.14,107.14,100
85,107.175,107.2,107.16,107.16,788
86,107.11,107.2,107.11,107.2,1200
87,107.08,107.11,107.08,107.1085,1107
88,107.08,107.115,107.08,107.11,1000
89,107.045,107.08,107.04,107.08,907
90,106.98,107.07,106.98,107.06,1100
91,107.075,107.08,107.0115,107.0115,2680
92,107.075,107.075,107.075,107.075,300
93,107.075,107.11,107.075,107.11,200
94,107.01,107.085,107.01,107.085,2700
95,106.995,106.995,106.97,106.97,300
96,107.07,107.07,107.02,107.02,2251
97,107.14,107.15,107.1,107.1,1199
98,107.17,107.17,107.16,107.16,400
99,107.2,107.22,107.11,107.165,3100
101,107.22,107.3095,107.22,107.3,1900
102,107.19,107.19,107.19,107.19,100
103,107.22,107.22,107.22,107.22,100
104,107.16,107.23,107.16,107.22,2370
106,107.27,107.27,107.185,107.21,1248
107,107.29,107.29,107.2201,107.2201,900
108,107.295,107.295,107.295,107.295,100
109,107.25,107.3099,107.25,107.3099,1800
110,107.29,107.29,107.24,107.25,1600
111,107.31,107.31,107.29,107.29,400
112,107.3517,107.3544,107.31,107.33,1758
113,107.3,107.35,107.3,107.35,700
115,107.31,107.31,107.31,107.31,100
116,107.26,107.26,107.25,107.25,300
119,107.26,107.27,107.24,107.27,3200
120,107.35,107.35,107.25,107.28,1800
121,107.29,107.33,107.28,107.33,1630
123,107.2,107.29,107.2,107.29,2749
124,107.1301,107.17,107.1301,107.17,500
125,107.09,107.13,107.09,107.13,900
126,107.04,107.08,107.04,107.08,800
127,107.005,107.01,106.98,107,1700
128,107.05,107.12,107.02,107.02,4028
129,107,107.04,107,107.04,600
131,106.91,106.99,106.91,106.99,500
132,106.85,106.89,106.79,106.85,2800
133,106.83,106.87,106.83,106.84,2300
134,106.81,106.82,106.77,106.78,1000
135,106.78,106.78,106.77,106.78,1690
136,106.68,106.758,106.68,106.758,1550
137,106.69,106.71,106.66,106.66,900
138,106.73,106.77,106.66,106.66,4690
139,106.78,106.78,106.74,106.74,1800
140,106.77,106.79,106.75,106.76,900
141,106.81,106.825,106.79,106.8,2200
142,106.75,106.8,106.75,106.8,885
143,106.71,106.78,106.71,106.77,1902
144,106.74,106.75,106.74,106.75,200
146,106.7296,106.7296,106.71,106.71,200
147,106.7202,106.7202,106.69,106.7,336
148,106.64,106.69,106.63,106.69,500
149,106.725,106.75,106.67,106.68,2744
151,106.63,106.71,106.63,106.71,701
152,106.65,106.68,106.65,106.66,1200
153,106.76,106.76,106.68,106.68,1843
154,106.79,106.8,106.78,106.78,1300
155,106.78,106.78,106.75,106.76,800
156,106.81,106.86,106.81,106.82,1001
158,106.79,106.82,106.78,106.82,800
159,106.65,106.76,106.65,106.76,500
160,106.78,106.78,106.695,106.72,1400
161,106.8,106.8,106.76,106.8,1300
162,106.75,106.79,106.75,106.78,1400
163,106.75,106.8,106.75,106.77,2301
164,106.7,106.76,106.7,106.75,450
166,106.65,106.7204,106.58,106.7204,3500
167,106.67,106.67,106.66,106.66,800
168,106.59,106.69,106.57,106.69,2000
169,106.68,106.68,106.6,106.6,1200
171,106.73,106.73,106.7,106.7,600
172,106.85,106.85,106.74,106.74,1785
173,106.82,106.85,106.8,106.85,1100
174,106.77,106.81,106.77,106.81,200
175,106.78,106.785,106.76,106.76,4922
176,106.7699,106.7699,106.73,106.74,5558
177,106.69,106.75,106.69,106.75,16254
178,106.65,106.67,106.65,106.67,500
179,106.7,106.7,106.7,106.7,100
180,106.68,106.73,106.65,106.66,3082
181,106.77,106.77,106.69,106.73,2025
182,106.78,106.79,106.77,106.78,1300
183,106.79,106.79,106.77,106.78,800
184,106.87,106.87,106.82,106.82,300
185,106.8,106.83,106.77,106.83,2503
186,106.805,106.81,106.77,106.77,7983
187,106.92,106.92,106.87,106.87,1100
188,106.86,106.92,106.86,106.92,3992
189,106.92,106.92,106.83,106.87,5700
190,106.885,106.91,106.86,106.91,7301
191,106.89,106.91,106.89,106.8902,321
192,106.95,106.95,106.89,106.9,1500
193,106.93,106.94,106.92,106.92,500
194,106.9,106.92,106.9,106.92,800
195,106.95,106.97,106.92,106.93,1474
196,106.94,106.94,106.91,106.91,700
197,106.96,106.96,106.94,106.94,1300
198,106.94,106.95,106.93,106.95,1000
199,106.9,106.9,106.9,106.9,303
200,106.89,106.89,106.89,106.89,100
201,106.89,106.93,106.89,106.905,2099
202,106.88,106.91,106.88,106.89,800
203,106.88,106.88,106.85,106.87,900
204,106.87,106.87,106.845,106.86,600
205,106.88,106.88,106.8799,106.88,300
206,106.87,106.88,106.87,106.88,200
207,106.86,106.87,106.85,106.87,500
208,106.84,106.86,106.83,106.84,1600
209,106.8177,106.8177,106.8177,106.8177,100
210,106.9,106.9,106.825,106.85,1400
211,106.9,106.92,106.9,106.92,1000
212,106.9136,106.9136,106.9136,106.9136,183
213,106.89,106.92,106.89,106.92,1078
214,106.85,106.85,106.85,106.85,200
215,106.83,106.83,106.83,106.83,200
216,106.82,106.88,106.82,106.83,5173
217,106.82,106.85,106.82,106.83,1099
218,106.78,106.81,106.78,106.78,400
220,106.76,106.7672,106.76,106.7672,200
221,106.735,106.77,106.71,106.77,2246
223,106.77,106.77,106.745,106.76,1600
224,106.8,106.8,106.78,106.79,700
225,106.73,106.79,106.71,106.79,2200
227,106.71,106.735,106.71,106.735,200
228,106.65,106.71,106.62,106.71,1300
229,106.73,106.73,106.65,106.65,2800
230,106.75,106.75,106.74,106.74,200
231,106.75,106.75,106.73,106.7309,525
232,106.78,106.8,106.74,106.74,2406
233,106.8,106.8,106.78,106.79,1051
234,106.77,106.77,106.77,106.77,200
235,106.75,106.76,106.75,106.76,920
236,106.73,106.75,106.73,106.75,449
237,106.71,106.71,106.71,106.71,100
238,106.72,106.72,106.72,106.72,100
239,106.67,106.72,106.67,106.72,1400
240,106.67,106.67,106.67,106.67,200
241,106.74,106.74,106.67,106.67,4500
242,106.73,106.74,106.7,106.74,900
243,106.66,106.74,106.66,106.74,1200
244,106.69,106.69,106.675,106.69,700
245,106.66,106.69,106.66,106.69,200
246,106.66,106.69,106.66,106.69,701
247,106.66,106.69,106.66,106.67,2501
248,106.61,106.6662,106.59,106.6662,3526
249,106.66,106.66,106.61,106.63,1101
250,106.68,106.68,106.665,106.665,500
251,106.69,106.71,106.69,106.6934,1027
252,106.69,106.69,106.69,106.69,100
253,106.7,106.7,106.65,106.695,3301
254,106.695,106.695,106.695,106.695,100
255,106.695,106.695,106.695,106.695,100
256,106.69,106.7,106.68,106.7,701
257,106.67,106.69,106.67,106.68,2867
258,106.64,106.68,106.64,106.67,2200
259,106.63,106.64,106.63,106.64,401
260,106.6,106.63,106.6,106.63,231
261,106.64,106.64,106.62,106.63,2000
262,106.705,106.74,106.635,106.635,5066
264,106.72,106.72,106.72,106.72,100
265,106.67,106.69,106.66,106.68,1500
266,106.67,106.6876,106.67,106.6876,201
267,106.65,106.67,106.65,106.67,1215
268,106.71,106.71,106.6465,106.6465,2780
269,106.69,106.7,106.69,106.7,749
270,106.72,106.72,106.67,106.695,2749
271,106.76,106.775,106.73,106.73,1727
272,106.75,106.76,106.75,106.75,300
273,106.84,106.84,106.75,106.75,2049
274,106.88,106.88,106.84,106.85,400
275,106.82,106.88,106.82,106.855,1402
276,106.825,106.825,106.825,106.825,200
277,106.83,106.83,106.82,106.82,1228
278,106.82,106.82,106.81,106.82,1800
279,106.8,106.81,106.8,106.8,400
280,106.77,106.77,106.77,106.77,100
281,106.78,106.78,106.77,106.77,953
282,106.79,106.82,106.775,106.78,2308
283,106.76,106.79,106.76,106.79,800
284,106.7612,106.78,106.7612,106.77,892
285,106.73,106.78,106.72,106.77,3205
286,106.785,106.785,106.77,106.77,463
287,106.785,106.785,106.785,106.785,100
288,106.78,106.8,106.78,106.785,800
289,106.775,106.79,106.775,106.79,700
290,106.735,106.77,106.73,106.77,2100
291,106.8,106.8,106.72,106.73,2273
292,106.86,106.88,106.81,106.81,822
293,106.92,106.92,106.87,106.87,1219
294,106.92,106.92,106.92,106.92,200
295,106.88,106.92,106.88,106.92,1529
296,106.88,106.89,106.85,106.8827,4521
297,106.94,106.94,106.9,106.91,2801
298,106.915,106.92,106.915,106.92,400
299,106.89,106.92,106.87,106.91,1407
300,106.87,106.875,106.84,106.875,1006
301,106.89,106.89,106.89,106.89,100
302,106.91,106.91,106.91,106.91,100
303,106.89,106.89,106.875,106.89,1201
304,106.89,106.9199,106.875,106.89,1777
305,106.86,106.89,106.86,106.865,540
306,106.9,106.9,106.86,106.87,1196
307,106.92,106.92,106.9,106.9,1100
308,106.93,106.9448,106.89,106.91,3935
309,106.94,106.95,106.93,106.93,2746
310,106.96,106.96,106.96,106.96,200
311,106.96,106.96,106.96,106.96,1409
312,106.95,106.95,106.9,106.94,3201
313,106.955,106.955,106.955,106.955,400
314,106.95,106.95,106.95,106.95,200
315,106.93,106.94,106.93,106.94,400
316,106.91,106.94,106.9,106.93,6197
317,106.94,106.94,106.91,106.92,1800
318,106.85,106.91,106.85,106.91,600
319,106.85,106.85,106.85,106.85,190
320,106.86,106.865,106.84,106.84,4554
321,106.93,106.96,106.87,106.87,4200
322,106.9,106.91,106.9,106.91,2613
323,106.8775,106.885,106.8775,106.885,500
324,106.86,106.87,106.86,106.87,1200
325,106.87,106.885,106.84,106.86,4210
326,106.91,106.92,106.87,106.87,6007
327,106.9,106.91,106.87,106.88,27700
328,106.88,106.89,106.875,106.89,2600
329,106.87,106.89,106.87,106.885,1110
330,106.845,106.87,106.84,106.87,1500
331,106.89,106.89,106.845,106.85,5678
332,106.94,106.955,106.89,106.9,3701
333,106.92,106.935,106.92,106.935,1872
334,106.94,106.95,106.92,106.92,2800
335,106.93,106.95,106.93,106.93,4208
336,106.89,106.944,106.89,106.944,1642
337,106.91,106.91,106.895,106.9,1329
338,106.8901,106.91,106.8901,106.91,900
339,106.8339,106.91,106.8339,106.9,5588
340,106.88,106.9,106.845,106.85,5500
341,106.87,106.8963,106.87,106.8775,3717
342,106.88,106.89,106.87,106.87,4433
344,106.87,106.88,106.87,106.87,1357
345,106.85,106.88,106.85,106.87,6501
346,106.865,106.865,106.85,106.85,4698
347,106.87,106.88,106.865,106.865,4959
348,106.93,106.93,106.865,106.87,6772
349,106.92,106.96,106.92,106.94,3501
350,106.91,106.9399,106.91,106.9202,2453
351,106.87,106.915,106.8602,106.91,5195
352,106.9,106.9,106.86,106.86,2800
353,106.9,106.9,106.9,106.9,701
354,106.905,106.905,106.88,106.88,1100
355,106.94,106.94,106.92,106.92,711
356,106.9185,106.93,106.9185,106.92,2217
357,106.94,106.95,106.9258,106.93,2206
358,106.89,106.94,106.89,106.93,1750
359,106.91,106.94,106.9,106.9,2126
360,106.925,106.925,106.91,106.91,2800
361,106.91,106.93,106.9,106.93,2413
362,106.91,106.92,106.9,106.9,300
363,106.92,106.93,106.9,106.92,5220
364,106.92,106.93,106.92,106.92,1200
365,106.96,106.99,106.92,106.92,4774
366,106.97,107,106.97,106.975,3288
367,106.92,106.95,106.91,106.95,800
368,106.9,106.9232,106.9,106.9232,3258
369,106.92,106.93,106.9,106.9,4550
370,106.91,106.92,106.905,106.915,3288
371,106.91,106.92,106.9,106.91,3951
372,106.905,106.92,106.9,106.91,1618
373,106.93,106.96,106.905,106.905,5208
374,106.9,106.92,106.9,106.91,2900
375,106.93,106.93,106.9,106.9,5710
376,106.97,106.97,106.9,106.925,6732
377,106.99,107.02,106.97,106.98,5650
378,106.98,107,106.95,106.99,7042
379,106.96,106.975,106.94,106.975,4900
380,106.95,106.97,106.95,106.955,3937
381,106.83,106.95,106.83,106.95,7798
382,106.915,106.915,106.84,106.85,10719
383,106.9,106.915,106.89,106.915,3177
384,106.89,106.91,106.89,106.9,5370
385,106.95,106.95,106.89,106.89,10996
386,106.97,107,106.96,106.96,11732
387,106.96,106.96,106.93,106.96,10888
388,107,107.01,106.93,106.96,17142
389,106.96,107,106.95,107,10512
390,106.92,107.07,106.84,106.97,69583
