EOG,EOG Resources,Energy,3,Oil & Gas Exploration & Production,50166006436,3407529
a1498051800,88.12,88.12,88.1,88.1,31048
1,87.7,88.065,87.36,88.06,8182
2,87.5,87.7,87.375,87.69,2491
3,87.41,87.58,87.41,87.53,4164
4,87.85,87.98,87.4,87.4,7845
5,87.98,88.23,87.79,87.81,7119
6,87.5,87.97,87.435,87.97,6334
7,87.83,87.83,87.44,87.48,9876
8,87.7484,87.99,87.64,87.87,33100
9,87.7,87.79,87.68,87.69,4900
10,87.79,87.79,87.659,87.68,9300
11,87.85,87.93,87.8,87.81,6122
12,87.87,87.97,87.84,87.88,7300
13,87.895,88.04,87.89,87.905,9435
14,87.82,87.93,87.79,87.895,15441
15,87.76,87.87,87.71,87.865,11077
16,87.78,87.89,87.76,87.76,18701
17,88.02,88.02,87.78,87.78,6897
18,87.96,88.02,87.96,88.02,7717
19,88.01,88.01,87.93,88,5902
20,88.13,88.22,87.99,88.03,3950
21,88.09,88.14,87.95,88.14,5554
22,87.9,88.1,87.86,88.1,10300
23,87.81,87.88,87.8,87.88,2600
24,87.8094,87.83,87.706,87.83,10504
25,87.8,87.83,87.71,87.77,18722
26,87.75,87.82,87.75,87.8,5350
27,87.8,87.8,87.71,87.745,2695
28,87.71,87.8,87.67,87.8,4314
29,87.74,87.83,87.74,87.75,3799
30,87.8,87.82,87.77,87.77,6017
31,87.76,87.83,87.76,87.8,17150
32,87.68,87.775,87.68,87.76,8100
33,87.63,87.7,87.55,87.68,19392
34,87.66,87.68,87.54,87.6,5516
35,87.71,87.71,87.65,87.68,2493
36,87.882,87.9,87.73,87.73,5725
37,87.88,87.952,87.83,87.89,7659
38,87.795,87.9,87.78,87.85,13562
39,87.7399,87.89,87.65,87.77,10096
40,87.7901,87.87,87.74,87.74,7363
41,87.8,87.86,87.7601,87.815,8900
42,87.8,87.8498,87.76,87.77,8753
43,87.96,87.96,87.77,87.8,21510
44,87.9451,87.96,87.88,87.9,8257
45,88.05,88.05,87.891,87.891,9328
46,88.03,88.0667,88.02,88.05,1889
47,88.13,88.16,88.01,88.03,11228
48,88.13,88.13,88.05,88.08,4050
49,88.15,88.17,88.1,88.12,7883
50,88.16,88.19,88.155,88.16,3000
51,88.17,88.21,88.14,88.19,10691
52,88.3,88.44,88.17,88.17,14348
53,88.27,88.3,88.21,88.27,1417
54,88.245,88.31,88.21,88.31,5361
55,88.27,88.33,88.18,88.245,14446
56,88.2442,88.3,88.23,88.3,3262
57,88.24,88.31,88.21,88.255,24412
58,88.33,88.33,88.225,88.225,7200
59,88.23,88.3,88.23,88.3,3200
60,88.61,88.61,88.23,88.23,6299
61,88.77,88.94,88.66,88.7,22277
62,88.96,88.99,88.78,88.78,14054
63,89,89.165,88.96,88.99,21677
64,89.1,89.1,88.9,89.01,20045
65,88.935,89.075,88.88,89.04,24831
66,88.36,88.95,88.36,88.89,16976
67,88.489,88.489,88.3,88.36,11331
68,88.545,88.57,88.39,88.44,26994
69,88.7075,88.74,88.59,88.59,8912
70,88.62,88.71,88.57,88.67,6100
71,88.61,88.71,88.56,88.62,8829
72,88.78,88.79,88.55,88.57,4943
73,88.5901,88.79,88.555,88.775,6967
74,88.43,88.67,88.43,88.59,11236
75,88.475,88.54,88.375,88.47,5132
76,88.43,88.43,88.395,88.4,3300
77,88.55,88.64,88.41,88.45,16096
78,88.55,88.59,88.5,88.56,5398
79,88.765,88.77,88.59,88.6,14174
80,88.63,88.74,88.59,88.74,10343
81,88.77,88.77,88.59,88.6,8896
82,88.67,88.83,88.65,88.7501,24271
83,88.645,88.68,88.6,88.67,4480
84,88.67,88.7503,88.64,88.65,8400
85,88.61,88.6973,88.6,88.6301,3073
86,88.6201,88.69,88.6084,88.6084,5755
87,88.55,88.64,88.53,88.64,6205
88,88.4605,88.58,88.42,88.555,8681
89,88.4,88.52,88.4,88.45,7275
90,88.36,88.4496,88.34,88.4,2212
91,88.31,88.37,88.285,88.32,9626
92,88.02,88.34,88.02,88.33,15584
93,88.1,88.17,87.97,88.03,14465
94,88.11,88.16,88.07,88.12,6224
95,87.905,88.06,87.905,88.06,5589
96,87.985,87.99,87.84,87.88,7818
97,87.98,88,87.9,87.97,10600
98,87.94,88,87.9,88,25407
99,88.0499,88.06,87.89,87.92,11642
100,87.92,88.08,87.91,88.05,7350
101,87.845,87.9,87.81,87.9,11290
102,87.88,87.94,87.74,87.85,15475
103,88,88,87.8984,87.9,3805
104,88.01,88.03,87.96,87.985,8401
105,87.945,88.02,87.9,88.02,12101
106,87.885,87.96,87.84,87.96,9092
107,87.93,87.93,87.85,87.9,8711
108,87.94,88.1,87.91,87.91,7851
109,87.93,88.035,87.91,87.97,8588
110,88.01,88.04,87.95,87.95,6538
111,87.94,88.04,87.94,88.03,2995
112,87.92,87.98,87.9,87.97,15248
113,87.85,87.92,87.83,87.92,14349
114,87.885,87.9,87.83,87.87,12518
115,87.83,87.905,87.83,87.885,13471
116,87.81,87.9,87.81,87.84,13900
117,87.8,87.82,87.75,87.8,8463
118,87.8,87.8097,87.74,87.8,10873
119,87.77,87.87,87.77,87.8,27118
120,87.75,87.76,87.68,87.75,4029
121,87.74,87.74,87.62,87.735,4709
122,87.7,87.72,87.66,87.72,3000
123,87.77,87.77,87.7,87.7,1700
124,87.81,87.83,87.8,87.83,2481
125,87.73,87.77,87.72,87.77,3201
126,87.67,87.75,87.6301,87.73,13835
127,87.58,87.64,87.57,87.64,4464
128,87.49,87.57,87.44,87.57,8237
129,87.37,87.47,87.35,87.47,8406
130,87.355,87.37,87.3,87.36,7185
131,87.399,87.42,87.36,87.37,9700
132,87.64,87.64,87.35,87.375,8520
133,87.59,87.6,87.55,87.6,3681
134,87.66,87.68,87.6,87.6,3011
135,87.795,87.83,87.67,87.67,7300
136,87.77,87.8499,87.77,87.8,5816
137,87.75,87.77,87.7,87.77,4500
138,87.75,87.76,87.7175,87.735,837
139,87.86,87.86,87.79,87.8,2350
140,87.92,87.92,87.81,87.84,26070
141,87.88,87.93,87.88,87.8915,5297
142,87.8199,87.88,87.79,87.88,14231
143,87.75,87.8299,87.75,87.79,6190
144,87.77,87.78,87.75,87.75,4083
145,87.81,87.85,87.78,87.79,7315
146,87.83,87.83,87.78,87.8,7239
147,87.73,87.85,87.73,87.83,15501
148,87.7237,87.78,87.715,87.72,7575
149,87.74,87.78,87.71,87.71,6795
150,87.63,87.76,87.63,87.74,2600
151,87.7354,87.74,87.66,87.66,8459
152,87.72,87.75,87.72,87.74,1801
153,87.64,87.75,87.64,87.72,7164
154,87.62,87.67,87.5705,87.65,17920
155,87.6,87.63,87.53,87.63,3778
156,87.52,87.57,87.46,87.57,5107
157,87.5,87.55,87.48,87.5,8852
158,87.41,87.5,87.41,87.5,6200
159,87.44,87.45,87.36,87.39,7753
160,87.439,87.45,87.42,87.45,7100
161,87.47,87.47,87.42,87.43,4900
162,87.43,87.47,87.43,87.47,4202
163,87.35,87.43,87.35,87.43,4895
164,87.42,87.42,87.35,87.35,6903
165,87.26,87.395,87.25,87.39,7964
166,87.2,87.3,87.2,87.27,8479
167,87.18,87.2,87.14,87.19,12270
168,87.185,87.19,87.165,87.19,3450
169,87.12,87.18,87.12,87.16,4785
170,87.21,87.23,87.1,87.11,39620
171,87.18,87.22,87.16,87.19,12429
172,87.22,87.25,87.19,87.19,7201
173,87.37,87.37,87.2,87.22,11729
174,87.3574,87.43,87.3574,87.39,3600
175,87.34,87.35,87.32,87.35,3900
176,87.28,87.37,87.28,87.35,3300
177,87.21,87.25,87.19,87.25,1200
178,87.16,87.2,87.14,87.18,2920
179,87.15,87.23,87.14,87.18,5840
180,87.21,87.23,87.1438,87.1438,3120
181,87.26,87.26,87.2122,87.2122,750
182,87.17,87.26,87.17,87.23,5005
183,87.215,87.24,87.14,87.15,2197
184,87.16,87.2003,87.16,87.2003,2676
185,87.12,87.16,87.09,87.09,22842
186,87.13,87.14,87.05,87.1,12789
187,87,87.11,86.98,87.11,8710
188,87.04,87.08,87.01,87.04,3600
189,86.98,87.02,86.961,87.02,3339
190,86.998,87.01,86.95,86.97,2500
191,86.88,87.01,86.845,86.995,12131
192,86.81,86.915,86.75,86.915,19657
193,86.95,86.95,86.7723,86.78,19605
194,86.9689,87.04,86.85,86.91,10125
195,86.92,87.01,86.8712,87.01,4032
196,86.86,86.92,86.86,86.9,4950
197,86.9401,86.97,86.87,86.87,7678
198,86.95,86.97,86.92,86.97,2600
199,86.92,87.01,86.91,87,4751
200,86.94,86.95,86.81,86.91,8700
201,86.91,86.98,86.91,86.94,10789
202,86.94,86.95,86.87,86.9299,15600
203,86.88,86.95,86.88,86.95,8127
204,86.88,86.94,86.87,86.91,6500
205,86.94,86.96,86.87,86.88,6602
206,87.03,87.04,86.92,86.9335,12006
207,86.98,87.01,86.94,87.01,5428
208,86.915,86.98,86.9,86.98,26057
209,86.81,86.92,86.81,86.915,2700
210,86.82,86.8265,86.78,86.8265,2800
211,86.93,86.95,86.8,86.8,6749
212,86.94,86.96,86.91,86.92,4149
213,86.91,86.94,86.9,86.93,4550
214,86.9,86.92,86.86,86.91,2998
215,86.94,86.94,86.9,86.92,3221
216,86.92,86.97,86.9,86.94,4617
217,86.89,86.92,86.88,86.88,1588
218,86.91,86.91,86.89,86.8992,1300
219,86.9,86.93,86.89,86.92,1336
220,86.9252,86.93,86.89,86.9,3200
221,86.89,86.9,86.84,86.9,7395
222,86.91,86.95,86.89,86.9,2500
223,86.815,86.91,86.815,86.91,9643
224,86.805,86.84,86.79,86.84,8353
225,86.74,86.8032,86.74,86.79,7269
226,86.75,86.7633,86.68,86.74,30436
227,86.7,86.75,86.67,86.75,8001
228,86.71,86.7296,86.67,86.68,6366
229,86.6628,86.74,86.6561,86.72,6523
230,86.65,86.69,86.65,86.665,9403
231,86.68,86.71,86.66,86.67,15189
232,86.68,86.71,86.665,86.69,5600
233,86.7,86.75,86.66,86.67,7400
234,86.715,86.73,86.7,86.7,5100
235,86.765,86.78,86.71,86.73,7400
236,86.85,86.865,86.76,86.78,8943
237,86.89,86.89,86.84,86.84,4075
238,86.965,86.98,86.85,86.88,17652
239,86.96,86.975,86.9,86.95,9214
240,87,87.03,86.965,86.965,8970
241,87.015,87.04,86.985,86.985,16243
242,86.9875,87.02,86.97,86.99,5501
243,86.96,86.96,86.92,86.95,2233
244,86.92,86.969,86.92,86.96,3962
245,86.95,86.95,86.9,86.9,5677
246,86.94,86.97,86.93,86.96,4700
247,87.03,87.03,86.91,86.93,12200
248,87.03,87.04,86.99,87.01,6023
249,87.07,87.07,87.0243,87.03,5503
250,87.05,87.12,87.05,87.08,11521
251,87.01,87.06,86.99,87.04,4291
252,86.99,87.02,86.99,87.02,1140
253,87.01,87.04,86.99,86.995,11008
254,87.02,87.06,87.02,87.03,8667
255,86.995,87,86.97,87,2985
256,86.92,87.02,86.92,86.995,6144
257,86.8901,86.94,86.89,86.92,7688
258,86.85,86.89,86.83,86.89,5006
259,86.83,86.87,86.82,86.82,2671
260,86.87,86.87,86.84,86.84,4900
261,86.85,86.87,86.82,86.86,11989
262,86.76,86.855,86.76,86.85,3840
263,86.69,86.79,86.635,86.7748,10064
264,86.74,86.74,86.65,86.66,3601
265,86.73,86.74,86.7,86.73,11300
266,86.685,86.74,86.68,86.725,14550
267,86.6701,86.69,86.659,86.685,12250
268,86.71,86.71,86.68,86.68,3528
269,86.73,86.73,86.71,86.7194,7082
270,86.78,86.7999,86.71,86.73,14878
271,86.78,86.785,86.77,86.78,7600
272,86.765,86.8,86.76,86.77,10908
273,86.69,86.775,86.69,86.76,10133
274,86.7,86.73,86.7,86.71,6175
275,86.86,86.86,86.69,86.7,11536
276,86.8,86.85,86.77,86.82,7350
277,86.77,86.8101,86.76,86.805,2181
278,86.8189,86.8189,86.76,86.76,2477
279,86.84,86.86,86.79,86.79,4220
280,86.85,86.85,86.82,86.84,8129
281,86.81,86.83,86.79,86.83,3044
282,86.86,86.86,86.8,86.815,7800
283,86.855,86.88,86.84,86.87,7824
284,86.84,86.86,86.82,86.855,8059
285,86.81,86.84,86.8,86.84,4173
286,86.82,86.84,86.8,86.8,1600
287,86.91,86.91,86.82,86.83,14065
288,86.94,86.96,86.89,86.92,5234
289,86.995,87.01,86.92,86.94,10957
290,86.94,87,86.94,86.98,7603
291,86.93,86.96,86.93,86.93,6400
292,86.9,86.93,86.89,86.93,6070
293,86.92,86.99,86.91,86.91,27423
294,86.96,86.97,86.8801,86.91,14247
295,87.02,87.02,86.95,86.97,7747
296,87,87.01,86.97,87.01,7410
297,87,87.01,86.95,86.99,4679
298,86.99,87.02,86.99,87.0058,6694
299,86.96,86.97,86.92,86.96,4686
300,86.98,86.98,86.95,86.95,2428
301,87.02,87.026,86.985,87,3165
302,87.04,87.04,86.99,87.01,4693
303,87.22,87.25,87.0431,87.05,23809
304,87.2501,87.29,87.18,87.21,12975
305,87.17,87.28,87.17,87.241,9178
306,87.25,87.25,87.1104,87.17,19372
307,87.22,87.24,87.19,87.2327,11520
308,87.255,87.26,87.22,87.22,8133
309,87.37,87.37,87.26,87.26,7274
310,87.3664,87.38,87.34,87.37,4865
311,87.37,87.39,87.37,87.38,2244
312,87.33,87.38,87.33,87.3638,5940
313,87.42,87.42,87.25,87.31,9172
314,87.34,87.43,87.34,87.43,3674
315,87.37,87.37,87.33,87.33,1715
316,87.253,87.36,87.23,87.36,5050
317,87.2,87.24,87.19,87.23,5770
318,87.29,87.29,87.19,87.2,5297
319,87.2879,87.31,87.28,87.3,2778
320,87.26,87.27,87.24,87.26,7900
321,87.23,87.26,87.23,87.25,1390
322,87.235,87.27,87.235,87.25,6249
323,87.23,87.235,87.2,87.235,7600
324,87.24,87.24,87.17,87.23,4877
325,87.28,87.28,87.23,87.24,10344
326,87.255,87.285,87.2272,87.28,11982
327,87.17,87.27,87.16,87.26,6111
328,87.14,87.18,87.06,87.175,30834
329,87.11,87.16,87.1,87.145,2700
330,87.12,87.15,87.11,87.11,5900
331,87.26,87.27,87.1201,87.13,9713
332,87.165,87.29,87.165,87.27,16000
333,87.18,87.19,87.16,87.175,8269
334,87.17,87.185,87.14,87.18,9894
335,87.17,87.175,87.15,87.15,8634
336,87.2,87.21,87.13,87.16,13105
337,87.19,87.2,87.17,87.2,2359
338,87.14,87.19,87.135,87.19,7940
339,87.17,87.19,87.13,87.14,17608
340,87.24,87.25,87.15,87.17,12647
341,87.23,87.27,87.16,87.27,21018
342,87.29,87.29,87.19,87.22,5137
343,87.25,87.3,87.23,87.28,5774
344,87.21,87.245,87.21,87.24,3600
345,87.3,87.3,87.17,87.22,11746
346,87.28,87.3,87.24,87.28,3546
347,87.24,87.27,87.23,87.27,1999
348,87.285,87.285,87.21,87.21,9062
349,87.22,87.31,87.22,87.29,4512
350,87.259,87.259,87.21,87.24,7580
351,87.27,87.275,87.21,87.24,6419
352,87.27,87.285,87.26,87.27,9640
353,87.27,87.3,87.26,87.27,10364
354,87.23,87.27,87.22,87.27,10219
355,87.15,87.23,87.15,87.23,22476
356,87.16,87.18,87.15,87.16,9116
357,87.21,87.23,87.15,87.165,18397
358,87.19,87.22,87.185,87.22,4400
359,87.23,87.235,87.18,87.19,6455
360,87.131,87.21,87.09,87.21,11035
361,87.14,87.16,87.13,87.13,7198
362,87.135,87.16,87.13,87.15,9125
363,87.19,87.25,87.13,87.14,13399
364,87.18,87.19,87.15,87.19,7917
365,87.18,87.19,87.16,87.18,9669
366,87.18,87.23,87.18,87.19,10768
367,87.17,87.19,87.16,87.19,21073
368,87.155,87.17,87.09,87.17,17737
369,87.15,87.18,87.14,87.15,40849
370,87.17,87.18,87.12,87.14,29413
371,87.19,87.19,87.17,87.175,10313
372,87.26,87.26,87.12,87.18,20962
373,87.22,87.26,87.22,87.25,16192
374,87.29,87.295,87.23,87.23,18639
375,87.25,87.29,87.23,87.29,20519
376,87.3,87.3356,87.24,87.24,17182
377,87.3,87.31,87.25,87.29,17026
378,87.29,87.33,87.28,87.3,11658
379,87.27,87.32,87.26,87.29,16936
380,87.29,87.29,87.24,87.28,18042
381,87.2801,87.2801,87.26,87.27,10302
382,87.25,87.29,87.25,87.285,27721
383,87.26,87.2758,87.24,87.27,14199
384,87.31,87.31,87.24,87.26,21938
385,87.19,87.32,87.18,87.31,24629
386,87.09,87.18,87.09,87.18,28922
387,87.13,87.15,87.06,87.08,24061
388,87.11,87.13,87.08,87.12,26024
389,87.14,87.14,87.09,87.11,38776
390,87.12,87.16,87.07,87.13,89684
