PPG,PPG Industries,Materials,8,Specialty Chemicals,28271652573,1210804
a1498051800,110.96,111,110.96,111,15229
1,111,111.21,111,111.21,500
2,111.085,111.085,111,111,3102
3,110.98,111.02,110.98,111.02,2400
4,110.96,110.96,110.92,110.94,600
5,110.88,110.93,110.88,110.93,1000
6,110.98,111.1,110.94,110.94,4450
7,111.025,111.04,110.91,110.95,8000
8,111.065,111.085,111.05,111.05,2500
9,110.92,111.075,110.92,111.06,1422
10,110.9,110.98,110.9,110.98,300
11,110.89,110.98,110.84,110.98,2298
12,110.96,110.96,110.89,110.89,1225
13,110.975,110.975,110.93,110.95,800
15,110.87,110.93,110.87,110.93,800
16,110.93,110.99,110.83,110.83,11070
17,110.93,110.96,110.85,110.91,6436
18,110.925,110.935,110.86,110.9,6950
19,111.03,111.03,110.93,110.95,3620
20,110.9,111.01,110.9,111.01,899
21,110.885,110.895,110.885,110.895,200
22,110.83,110.86,110.83,110.86,900
23,110.775,110.805,110.775,110.78,1100
24,110.84,110.86,110.75,110.79,4201
25,110.81,110.85,110.81,110.81,300
26,110.955,110.955,110.82,110.82,1260
27,110.895,110.895,110.895,110.895,100
28,110.93,110.93,110.88,110.92,600
29,110.92,110.92,110.92,110.92,100
30,110.895,110.93,110.88,110.92,600
31,110.92,110.94,110.89,110.89,1402
32,110.87,110.97,110.84,110.9,15313
33,110.91,110.93,110.9,110.91,600
34,110.85,110.85,110.85,110.85,200
35,110.85,110.85,110.81,110.84,800
36,110.79,110.84,110.76,110.8,1749
39,110.8,110.8,110.75,110.77,1800
40,110.79,110.84,110.78,110.81,1000
41,110.75,110.75,110.75,110.75,600
42,110.7912,110.8,110.75,110.765,2477
43,110.79,110.81,110.77,110.81,1000
44,110.79,110.79,110.79,110.79,700
45,110.77,110.79,110.77,110.79,500
46,110.75,110.82,110.75,110.79,3934
47,110.83,110.86,110.78,110.78,900
48,110.77,110.84,110.77,110.83,1800
49,110.77,110.78,110.77,110.78,2000
50,110.81,110.81,110.77,110.77,2454
51,110.77,110.81,110.77,110.81,1300
52,110.78,110.79,110.77,110.77,1500
53,110.801,110.81,110.77,110.77,8301
54,110.8,110.82,110.79,110.82,1000
55,110.8,110.8152,110.78,110.8152,889
56,110.79,110.79,110.787,110.79,470
57,110.775,110.81,110.77,110.8,5701
58,110.8,110.82,110.775,110.775,3401
59,110.79,110.805,110.77,110.805,3000
60,110.79,110.8,110.77,110.78,2733
61,110.78,110.81,110.77,110.8,2401
62,110.79,110.8,110.78,110.79,700
63,110.79,110.81,110.79,110.81,1000
64,110.82,110.82,110.79,110.8,1300
65,110.82,110.82,110.82,110.82,202
66,110.84,110.92,110.8301,110.84,2600
67,110.85,110.86,110.845,110.86,500
68,110.86,110.86,110.82,110.82,600
69,110.9,110.9,110.84,110.8506,1224
70,110.9,110.92,110.88,110.9,800
71,110.91,110.91,110.91,110.91,200
72,110.97,110.97,110.92,110.92,1000
73,111.04,111.04,111.04,111.04,100
74,110.97,111.02,110.97,111.02,900
75,110.933,110.933,110.93,110.93,250
76,110.88,110.94,110.86,110.94,700
77,110.885,110.885,110.8401,110.8401,572
78,110.85,110.85,110.85,110.85,100
80,110.87,110.87,110.82,110.83,3723
81,110.87,110.87,110.87,110.87,100
82,110.825,110.86,110.82,110.86,5900
83,110.82,110.83,110.82,110.82,3000
84,110.72,110.81,110.68,110.81,3500
85,110.7455,110.7455,110.675,110.72,2005
86,110.76,110.78,110.75,110.75,3400
87,110.785,110.785,110.75,110.77,3197
88,110.77,110.78,110.77,110.77,700
89,110.81,110.81,110.75,110.75,2450
90,110.78,110.81,110.77,110.81,1305
91,110.77,110.78,110.75,110.78,5165
92,110.75,110.81,110.75,110.79,3100
93,110.75,110.76,110.75,110.75,15195
94,110.75,110.76,110.75,110.75,4601
95,110.75,110.76,110.75,110.75,6200
96,110.75,110.76,110.75,110.76,2938
97,110.72,110.75,110.71,110.75,20386
98,110.7,110.74,110.68,110.74,1200
99,110.625,110.705,110.625,110.705,800
100,110.67,110.67,110.64,110.64,800
101,110.66,110.665,110.65,110.665,800
102,110.76,110.76,110.68,110.68,1749
103,110.8,110.82,110.78,110.78,1300
104,110.81,110.81,110.81,110.81,651
105,110.81,110.82,110.8,110.82,1607
106,110.7391,110.79,110.73,110.79,1671
107,110.76,110.76,110.74,110.74,600
108,110.82,110.82,110.77,110.77,1400
109,110.81,110.81,110.81,110.81,1300
110,110.775,110.81,110.775,110.81,5755
111,110.81,110.82,110.8,110.8,800
112,110.82,110.8255,110.81,110.81,1472
113,110.75,110.82,110.7,110.82,1300
114,110.77,110.78,110.7495,110.7495,1367
115,110.77,110.77,110.77,110.77,400
116,110.77,110.77,110.735,110.735,1400
117,110.765,110.77,110.7458,110.7458,733
118,110.77,110.77,110.75,110.75,3106
119,110.8,110.8,110.78,110.78,300
120,110.85,110.85,110.79,110.79,1402
121,110.8,110.84,110.8,110.81,1443
122,110.8,110.8,110.795,110.8,1526
123,110.755,110.8,110.72,110.8,2000
124,110.75,110.755,110.75,110.755,600
125,110.77,110.77,110.74,110.755,7101
126,110.745,110.79,110.73,110.775,3301
127,110.745,110.745,110.745,110.745,1195
128,110.71,110.745,110.71,110.72,600
129,110.7,110.71,110.695,110.71,1772
130,110.75,110.75,110.7,110.7,2150
131,110.77,110.77,110.75,110.75,599
132,110.79,110.8,110.75,110.75,1074
133,110.78,110.8,110.78,110.79,972
134,110.81,110.81,110.77,110.77,1200
135,110.79,110.83,110.79,110.83,700
137,110.785,110.785,110.78,110.78,1500
138,110.78,110.78,110.78,110.78,400
139,110.7548,110.7548,110.7548,110.7548,125
140,110.7599,110.7599,110.73,110.73,750
141,110.8,110.8,110.76,110.76,790
142,110.82,110.82,110.82,110.82,200
143,110.82,110.82,110.82,110.82,100
144,110.82,110.82,110.82,110.82,200
145,110.8,110.82,110.8,110.82,300
146,110.78,110.8,110.78,110.78,500
147,110.787,110.787,110.787,110.787,700
148,110.82,110.82,110.79,110.79,850
149,110.85,110.85,110.83,110.83,1050
150,110.85,110.87,110.85,110.86,1301
151,110.8,110.84,110.8,110.84,700
153,110.8,110.8,110.8,110.8,400
154,110.78,110.795,110.78,110.78,2900
155,110.78,110.79,110.78,110.79,800
156,110.8,110.83,110.79,110.79,3015
157,110.82,110.82,110.8,110.8,602
158,110.85,110.85,110.81,110.81,400
159,110.84,110.84,110.83,110.84,400
160,110.83,110.85,110.83,110.85,700
162,110.8286,110.83,110.8286,110.83,907
163,110.82,110.82,110.81,110.82,1350
164,110.81,110.81,110.81,110.81,100
165,110.795,110.8,110.795,110.8,822
166,110.8,110.82,110.795,110.795,11200
167,110.83,110.83,110.81,110.81,375
168,110.79,110.83,110.78,110.83,2808
169,110.78,110.8,110.78,110.79,1629
170,110.78,110.78,110.78,110.78,1140
171,110.81,110.81,110.79,110.79,500
172,110.8,110.8,110.79,110.79,200
173,110.78,110.8,110.78,110.8,653
174,110.77,110.785,110.76,110.78,3875
175,110.77,110.77,110.77,110.77,100
176,110.7538,110.77,110.7538,110.77,259
177,110.76,110.76,110.745,110.745,300
178,110.74,110.745,110.73,110.745,900
179,110.8,110.8,110.73,110.73,1600
182,110.83,110.84,110.82,110.82,1499
183,110.85,110.85,110.85,110.85,100
184,110.85,110.85,110.85,110.85,200
185,110.79,110.82,110.79,110.82,1101
186,110.77,110.77,110.76,110.765,400
187,110.76,110.79,110.73,110.79,600
188,110.75,110.75,110.75,110.75,100
189,110.78,110.78,110.735,110.75,900
190,110.78,110.78,110.77,110.77,700
191,110.75,110.79,110.73,110.77,2621
192,110.74,110.77,110.73,110.77,1200
193,110.72,110.75,110.72,110.75,1700
194,110.78,110.78,110.75,110.75,2000
195,110.77,110.78,110.73,110.76,1906
196,110.77,110.78,110.72,110.78,2882
197,110.78,110.78,110.78,110.78,427
198,110.78,110.78,110.74,110.74,400
199,110.77,110.79,110.75,110.78,1602
200,110.79,110.79,110.73,110.74,2900
201,110.77,110.77,110.75,110.75,1069
202,110.76,110.79,110.76,110.77,400
203,110.78,110.79,110.77,110.77,2563
204,110.78,110.8,110.78,110.8,1111
206,110.77,110.78,110.75,110.76,1400
207,110.74,110.77,110.73,110.77,2150
208,110.76,110.76,110.72,110.73,1300
209,110.75,110.75,110.73,110.73,400
210,110.77,110.77,110.73,110.73,1321
211,110.78,110.78,110.77,110.77,1249
212,110.77,110.78,110.77,110.77,3048
213,110.77,110.78,110.77,110.78,400
214,110.8,110.82,110.79,110.79,1673
215,110.8,110.8,110.7852,110.7852,400
216,110.79,110.8,110.77,110.8,1800
217,110.78,110.79,110.77,110.79,1100
218,110.77,110.78,110.77,110.78,1000
219,110.78,110.79,110.77,110.77,1300
220,110.7922,110.7922,110.7922,110.7922,196
222,110.78,110.8,110.78,110.79,520
223,110.75,110.78,110.7,110.78,1300
224,110.71,110.73,110.71,110.73,514
225,110.74,110.74,110.74,110.74,100
226,110.72,110.75,110.705,110.705,1200
227,110.739,110.74,110.7,110.7,400
228,110.72,110.72,110.72,110.72,100
229,110.76,110.76,110.72,110.74,1345
230,110.7388,110.74,110.72,110.74,500
231,110.69,110.74,110.69,110.73,1600
232,110.73,110.73,110.715,110.715,300
233,110.695,110.695,110.695,110.695,100
234,110.72,110.72,110.68,110.69,1629
235,110.72,110.72,110.7,110.71,1000
236,110.75,110.75,110.72,110.72,793
237,110.75,110.75,110.75,110.75,323
239,110.74,110.75,110.73,110.75,1550
240,110.75,110.7599,110.74,110.74,3713
241,110.75,110.76,110.75,110.75,5558
242,110.77,110.77,110.76,110.76,400
243,110.75,110.755,110.75,110.75,1900
244,110.75,110.755,110.75,110.755,700
245,110.75,110.75,110.75,110.75,1400
246,110.75,110.755,110.74,110.75,3922
247,110.755,110.755,110.75,110.75,1341
248,110.69,110.755,110.66,110.75,7590
250,110.7,110.72,110.7,110.7,1100
251,110.7,110.71,110.7,110.7,600
252,110.7,110.7,110.7,110.7,100
253,110.66,110.68,110.65,110.67,1000
254,110.68,110.69,110.66,110.66,3650
255,110.6832,110.6924,110.68,110.68,2200
256,110.69,110.7,110.68,110.68,3700
257,110.69,110.71,110.68,110.68,2934
258,110.68,110.72,110.68,110.72,800
259,110.72,110.72,110.68,110.69,1800
260,110.68,110.68,110.68,110.68,200
261,110.68,110.68,110.68,110.68,300
262,110.69,110.69,110.68,110.68,10175
263,110.66,110.7,110.66,110.68,4651
264,110.625,110.68,110.625,110.66,1051
265,110.62,110.64,110.61,110.64,2050
266,110.61,110.64,110.59,110.64,600
267,110.57,110.59,110.535,110.57,1100
268,110.6,110.6,110.57,110.57,1200
269,110.6,110.61,110.6,110.6,3000
270,110.61,110.61,110.6,110.6,2200
271,110.6,110.61,110.6,110.6,1500
272,110.62,110.62,110.6,110.6,1908
273,110.62,110.62,110.6,110.6,800
274,110.6,110.63,110.6,110.63,200
275,110.61,110.63,110.6,110.61,3850
276,110.61,110.63,110.6,110.62,1773
277,110.61,110.62,110.6,110.61,1000
278,110.61,110.61,110.6,110.6,800
279,110.65,110.65,110.62,110.62,3251
280,110.62,110.66,110.601,110.62,1200
281,110.63,110.65,110.6,110.65,700
282,110.6174,110.65,110.6,110.65,480
283,110.64,110.64,110.62,110.63,3045
284,110.65,110.66,110.63,110.66,1400
285,110.64,110.65,110.63,110.64,1900
286,110.65,110.65,110.63,110.63,300
287,110.68,110.68,110.65,110.65,1400
288,110.6986,110.6986,110.68,110.68,600
289,110.66,110.67,110.66,110.67,600
290,110.66,110.67,110.66,110.67,1600
291,110.66,110.6634,110.66,110.6634,2000
292,110.66,110.67,110.66,110.66,2400
293,110.68,110.68,110.66,110.67,3202
296,110.67,110.67,110.66,110.66,1817
297,110.68,110.68,110.6654,110.6654,425
298,110.66,110.66,110.65,110.66,2200
299,110.66,110.67,110.66,110.66,2600
300,110.64,110.67,110.6388,110.66,3450
301,110.58,110.62,110.58,110.6,2348
302,110.6192,110.63,110.6,110.6003,32892
303,110.64,110.64,110.63,110.63,700
304,110.62,110.62,110.61,110.61,963
305,110.6,110.605,110.56,110.59,2381
306,110.62,110.62,110.6,110.605,3966
307,110.64,110.64,110.62,110.62,628
308,110.67,110.67,110.6,110.6,4001
309,110.68,110.68,110.65,110.67,7731
310,110.68,110.68,110.67,110.67,300
311,110.66,110.66,110.66,110.66,301
312,110.65,110.65,110.65,110.65,4700
313,110.66,110.66,110.65,110.65,3711
314,110.67,110.67,110.651,110.651,250
315,110.67,110.67,110.67,110.67,200
316,110.66,110.66,110.65,110.66,1635
317,110.66,110.66,110.66,110.66,400
318,110.65,110.65,110.65,110.65,13100
319,110.65,110.67,110.65,110.66,2450
320,110.66,110.66,110.65,110.65,1438
321,110.65,110.67,110.65,110.67,943
322,110.65,110.65,110.65,110.65,900
323,110.67,110.67,110.65,110.65,1199
324,110.65,110.65,110.65,110.65,800
325,110.6501,110.6501,110.6501,110.6501,398
326,110.65,110.65,110.65,110.65,2700
327,110.655,110.67,110.65,110.66,3816
328,110.65,110.65,110.645,110.65,2900
329,110.65,110.66,110.65,110.65,4529
330,110.67,110.67,110.65,110.65,4951
331,110.65,110.6546,110.65,110.65,2410
332,110.65,110.66,110.65,110.66,600
333,110.66,110.66,110.645,110.65,7000
334,110.65,110.66,110.645,110.65,2901
335,110.655,110.66,110.65,110.65,1567
336,110.67,110.67,110.65,110.655,5734
337,110.655,110.67,110.65,110.67,3051
338,110.66,110.66,110.65,110.66,4328
339,110.66,110.66,110.66,110.66,1595
340,110.68,110.68,110.66,110.67,2094
341,110.66,110.68,110.66,110.68,1300
342,110.66,110.67,110.66,110.67,1845
343,110.66,110.67,110.66,110.66,500
344,110.66,110.66,110.66,110.66,3100
345,110.66,110.66,110.66,110.66,1063
346,110.67,110.67,110.66,110.66,4900
347,110.67,110.68,110.6605,110.665,1701
348,110.66,110.68,110.66,110.67,2200
349,110.67,110.67,110.65,110.66,3200
350,110.7,110.7,110.66,110.67,4494
351,110.6892,110.71,110.6892,110.71,1395
352,110.7,110.7,110.7,110.7,1100
353,110.7,110.7,110.7,110.7,2600
354,110.7,110.705,110.69,110.7009,2650
355,110.7,110.7,110.7,110.7,3000
356,110.57,110.69,110.56,110.69,6828
357,110.62,110.63,110.56,110.57,9717
358,110.6325,110.68,110.62,110.625,6151
359,110.635,110.66,110.62,110.64,1800
360,110.65,110.66,110.62,110.65,2800
361,110.65,110.66,110.63,110.65,1869
362,110.66,110.66,110.62,110.62,5100
363,110.64,110.64,110.62,110.63,1400
364,110.63,110.63,110.62,110.625,5200
365,110.63,110.63,110.62,110.63,5375
366,110.62,110.63,110.62,110.63,4600
367,110.63,110.63,110.62,110.62,7970
368,110.62,110.635,110.62,110.6205,3764
369,110.625,110.63,110.62,110.6225,3370
370,110.62,110.63,110.62,110.62,5387
371,110.55,110.64,110.55,110.625,10411
372,110.51,110.55,110.5,110.55,6529
373,110.505,110.51,110.5,110.505,2336
374,110.51,110.53,110.5,110.51,6199
375,110.5,110.52,110.47,110.5,7779
376,110.56,110.56,110.5,110.5,36099
377,110.56,110.565,110.55,110.56,2240
378,110.6,110.61,110.56,110.56,9548
379,110.6,110.6,110.6,110.6,9089
380,110.62,110.62,110.6,110.61,6924
381,110.63,110.631,110.6,110.6,8699
382,110.63,110.64,110.63,110.63,2700
383,110.63,110.64,110.63,110.63,4600
384,110.63,110.63,110.63,110.63,3029
385,110.63,110.64,110.62,110.63,5400
386,110.63,110.64,110.63,110.63,12355
387,110.64,110.64,110.63,110.64,6992
388,110.63,110.64,110.63,110.63,5490
389,110.64,110.65,110.63,110.63,13137
390,110.67,110.72,110.63,110.63,81735
