EOG,EOG Resources,Energy,3,Oil & Gas Exploration & Production,52901814180,3003891
a1493386200,93.97,93.97,93.97,93.97,34303
1,93.12,93.75,93.12,93.75,4714
2,93.125,93.19,93,93.09,10245
3,92.87,93.05,92.87,93.05,1800
4,92.9,92.96,92.88,92.94,2105
5,92.92,92.92,92.87,92.8996,305
6,93.005,93.07,92.97,93.02,5002
7,92.81,93.04,92.81,92.99,2654
8,92.92,93.02,92.92,92.95,3900
9,92.92,93,92.86,93,1808
10,92.84,92.88,92.84,92.84,400
11,92.88,92.88,92.8,92.83,2877
12,92.75,92.865,92.75,92.865,600
13,92.95,92.95,92.74,92.76,2674
14,92.84,93,92.84,92.95,5279
15,92.88,92.94,92.87,92.87,2875
16,92.895,93,92.87,92.91,3200
17,93,93,92.88,92.895,4320
18,92.93,93,92.93,92.97,6670
19,92.97,93.01,92.86,92.93,6241
20,92.93,92.97,92.88,92.94,8871
21,93.1,93.1,92.96,92.96,5478
22,93.09,93.16,93.08,93.11,6607
23,93.2,93.21,93.13,93.13,5800
24,93.355,93.355,93.22,93.22,3190
25,93.23,93.41,93.23,93.36,4198
26,93.26,93.29,93.18,93.265,5267
27,93.25,93.32,93.25,93.31,1497
28,93.38,93.38,93.24,93.27,6380
29,93.44,93.5,93.34,93.38,9779
30,93.44,93.47,93.38,93.4575,3270
31,93.38,93.5,93.37,93.43,5910
32,93.46,93.46,93.29,93.43,4528
33,93.46,93.56,93.46,93.46,4401
34,93.44,93.47,93.38,93.47,8055
35,93.53,93.54,93.46,93.475,3851
36,93.555,93.61,93.54,93.54,5504
37,93.635,93.665,93.52,93.5599,5100
38,93.61,93.65,93.61,93.65,4776
39,93.525,93.625,93.51,93.61,6698
40,93.545,93.545,93.48,93.53,4480
41,93.51,93.57,93.455,93.56,4944
42,93.455,93.49,93.45,93.49,2301
43,93.45,93.53,93.45,93.46,5719
44,93.6,93.6,93.48,93.48,2387
45,93.64,93.68,93.59,93.62,4381
46,93.58,93.66,93.58,93.6267,3548
47,93.74,93.74,93.595,93.595,3664
48,93.73,93.76,93.73,93.73,1925
49,93.78,93.78,93.7,93.73,2699
50,93.75,93.84,93.75,93.77,3367
51,93.765,93.83,93.72,93.73,8468
52,93.71,93.77,93.69,93.76,7034
53,93.655,93.655,93.635,93.64,400
54,93.59,93.63,93.59,93.63,1151
55,93.61,93.61,93.56,93.57,2003
56,93.54,93.6,93.47,93.6,3642
57,93.57,93.58,93.54,93.55,1500
58,93.585,93.6,93.55,93.592,3303
59,93.51,93.58,93.48,93.579,4133
60,93.59,93.59,93.54,93.54,2328
61,93.68,93.68,93.543,93.56,3347
62,93.67,93.68,93.63,93.68,2725
63,93.6,93.64,93.58,93.62,2300
64,93.55,93.62,93.525,93.58,2841
65,93.55,93.58,93.51,93.55,5399
66,93.6,93.64,93.55,93.55,4993
67,93.66,93.72,93.62,93.62,3523
68,93.7,93.72,93.67,93.67,2000
69,93.65,93.69,93.6,93.69,4613
70,93.67,93.68,93.63,93.65,1087
71,93.61,93.64,93.59,93.59,4300
72,93.55,93.59,93.53,93.59,4288
73,93.52,93.61,93.52,93.56,7400
74,93.31,93.52,93.31,93.52,4800
75,93.31,93.31,93.31,93.31,100
76,93.35,93.35,93.24,93.32,5301
77,93.36,93.36,93.3585,93.3585,601
78,93.26,93.36,93.26,93.33,2400
79,93.2673,93.3,93.2525,93.2525,1528
80,93.37,93.37,93.29,93.29,1658
81,93.38,93.4,93.34,93.36,1001
82,93.32,93.3899,93.32,93.3899,2975
83,93.3274,93.34,93.26,93.29,2575
84,93.315,93.38,93.31,93.33,2221
85,93.29,93.29,93.25,93.29,2000
86,93.39,93.39,93.29,93.29,1700
87,93.415,93.43,93.415,93.43,300
88,93.33,93.405,93.31,93.38,3378
89,93.26,93.325,93.22,93.325,1686
90,93.24,93.24,93.17,93.22,3529
91,93.24,93.25,93.22,93.25,1000
92,93.22,93.28,93.22,93.26,1430
93,93.2,93.21,93.2,93.21,200
94,93.13,93.21,93.13,93.21,1000
95,93.2,93.2,93.14,93.14,1900
96,93.31,93.34,93.24,93.24,1800
97,93.29,93.33,93.29,93.33,1375
98,93.23,93.28,93.22,93.28,2500
99,93.25,93.25,93.19,93.23,2051
100,93.3056,93.3056,93.28,93.28,1000
101,93.17,93.28,93.17,93.27,2625
102,93.16,93.16,93.09,93.16,2453
103,93.0877,93.14,93.0877,93.14,1001
104,93.11,93.13,93.08,93.08,5414
105,93.16,93.16,93.14,93.14,400
106,93.08,93.1,93.08,93.09,1300
107,93.0002,93.08,92.98,93.08,3755
108,93.13,93.15,93.02,93.02,1527
109,93.1139,93.14,93.1047,93.125,621
110,93.09,93.14,93.09,93.14,300
111,93.08,93.1,93.07,93.08,800
112,93.14,93.16,93.1,93.1,1201
113,93.0679,93.11,93.06,93.11,900
114,93.07,93.09,93.07,93.07,800
115,93.015,93.02,92.99,93.02,1336
116,93.08,93.08,92.99,92.99,2251
117,92.97,93.08,92.97,93.08,2898
118,92.96,92.96,92.92,92.96,2100
119,92.95,92.97,92.92,92.94,1451
120,92.94,92.95,92.9,92.92,16359
121,92.96,92.97,92.88,92.9,12472
122,92.98,92.98,92.96,92.966,1275
123,92.95,92.95,92.91,92.95,1276
124,92.899,92.9499,92.86,92.94,3104
125,92.91,92.98,92.91,92.91,1703
126,92.89,92.91,92.88,92.88,800
127,92.95,92.96,92.91,92.91,1100
128,92.9385,92.9385,92.92,92.93,1219
129,93.0004,93.0004,92.91,92.9435,3941
130,92.94,92.9993,92.94,92.9993,828
131,92.959,92.959,92.959,92.959,400
132,92.9,92.954,92.9,92.9281,450
133,92.87,92.9,92.86,92.9,4258
134,92.9212,92.9212,92.85,92.86,4050
135,92.8,92.89,92.8,92.89,1200
136,92.81,92.82,92.81,92.82,300
137,92.651,92.77,92.651,92.77,1700
138,92.59,92.68,92.59,92.65,2550
139,92.67,92.68,92.63,92.63,2202
140,92.64,92.69,92.64,92.6758,645
141,92.63,92.6395,92.6,92.6395,1050
142,92.67,92.67,92.63,92.63,500
143,92.66,92.66,92.63,92.64,2084
144,92.735,92.735,92.63,92.63,2450
145,92.69,92.69,92.65,92.65,1204
146,92.73,92.73,92.72,92.72,300
147,92.72,92.72,92.72,92.72,200
148,92.75,92.81,92.71,92.71,2083
149,92.81,92.81,92.804,92.804,201
150,92.83,92.83,92.79,92.79,800
151,92.9407,92.9407,92.8312,92.8312,1376
153,92.9,92.96,92.9,92.93,1600
154,92.8,92.88,92.8,92.88,5289
155,92.75,92.8,92.75,92.79,3320
156,92.79,92.84,92.75,92.75,3228
157,92.7735,92.7735,92.7735,92.7735,100
158,92.88,92.89,92.76,92.8,1501
159,92.86,92.86,92.86,92.86,100
160,92.98,92.98,92.88,92.9,1302
161,92.96,93.016,92.96,93.016,400
162,92.99,92.99,92.99,92.99,300
163,92.98,92.98,92.98,92.98,100
165,92.97,92.9946,92.94,92.9946,1626
166,93.05,93.05,92.98,92.98,520
167,92.99,93.05,92.99,93.05,300
168,92.9073,92.96,92.8635,92.96,5745
169,92.92,92.92,92.9061,92.9061,412
170,92.89,92.89,92.87,92.89,1027
171,92.89,92.92,92.89,92.89,1001
172,92.92,92.92,92.92,92.92,400
173,92.85,92.87,92.85,92.87,1700
174,92.89,92.89,92.81,92.86,3660
175,92.84,92.88,92.84,92.88,511
176,92.75,92.83,92.75,92.83,2008
177,92.75,92.77,92.75,92.76,500
178,92.7234,92.86,92.7234,92.79,1535
179,92.73,92.73,92.69,92.72,1145
180,92.77,92.77,92.73,92.73,601
181,92.75,92.8064,92.75,92.76,3263
182,92.78,92.8,92.75,92.7591,1217
183,92.8,92.85,92.8,92.81,1318
184,92.76,92.8,92.75,92.8,600
185,92.78,92.79,92.76,92.76,652
186,92.82,92.82,92.72,92.77,1444
187,92.81,92.81,92.81,92.81,100
188,92.9,92.9,92.79,92.82,4033
189,92.92,92.95,92.8954,92.9,2535
190,92.89,92.946,92.86,92.946,1206
191,92.86,92.885,92.86,92.885,600
192,92.87,92.9,92.84,92.9,2036
193,92.9,92.9,92.88,92.8812,650
194,92.94,92.94,92.87,92.87,432
195,92.89,92.97,92.89,92.96,1900
196,92.9,92.91,92.9,92.91,300
197,92.91,92.94,92.9,92.9,1701
198,92.9,92.935,92.9,92.93,800
199,92.92,92.95,92.91,92.94,1000
200,92.99,93,92.95,92.95,1236
201,93.01,93.03,92.99,92.99,1400
202,93.01,93.03,93.01,93.03,1002
203,93.08,93.09,93,93,2390
204,93.075,93.08,93.03,93.075,400
205,93.07,93.08,93.01,93.04,2200
206,93.02,93.04,93,93.04,1150
207,93.02,93.02,92.96,92.99,1701
208,92.99,92.99,92.96,92.97,500
209,93.055,93.055,92.97,92.97,1800
210,93.09,93.09,93.06,93.08,1041
211,93.01,93.05,93.01,93.05,1162
212,92.97,92.99,92.97,92.99,744
213,93.02,93.02,92.98,92.99,2206
214,93.07,93.07,92.95,92.98,1600
215,93.02,93.02,93.02,93.02,200
216,93.075,93.075,93.03,93.05,1260
217,93.03,93.07,93.03,93.06,500
218,93.03,93.07,93.03,93.05,15152
219,93.02,93.03,93.01,93.03,900
220,93.07,93.07,92.99,93.0205,3138
221,93.06,93.06,93.055,93.06,753
222,93.03,93.06,93.03,93.06,300
223,93.11,93.11,93.03,93.03,3602
224,93.14,93.14,93.09,93.1,1900
225,93.11,93.15,93.11,93.13,2579
226,93.14,93.14,93.1154,93.1154,338
227,93.09,93.14,93.09,93.14,650
228,93.04,93.05,93.01,93.05,1400
229,93,93.02,93,93.0148,600
230,92.94,93,92.9,93,1400
231,93.01,93.01,92.9443,92.95,2012
232,92.97,92.98,92.97,92.98,300
233,93.01,93.01,92.99,93,701
234,92.93,92.99,92.93,92.99,1982
235,92.95,92.95,92.91,92.91,500
236,93.01,93.01,92.98,92.99,1201
237,92.95,93.01,92.94,92.95,2185
238,92.91,92.91,92.91,92.91,100
239,92.9352,92.94,92.925,92.925,800
240,92.92,92.96,92.92,92.95,1507
241,92.99,92.99,92.96,92.96,2541
242,92.98,93.01,92.98,93,1500
243,93.02,93.03,93,93.01,2601
244,93,93.04,92.98,93.0379,1683
245,93.02,93.02,92.98,93.02,1880
246,93.06,93.06,93,93,2989
247,93.03,93.07,93.03,93.07,3500
248,93.03,93.03,93.02,93.02,400
249,93.03,93.03,93.02,93.02,550
250,93.04,93.06,93.04,93.04,1375
251,93,93.02,93,93.01,1221
252,92.99,93.02,92.99,93,600
253,93.02,93.02,92.99,92.99,1100
254,92.99,93.0044,92.99,92.99,1400
255,92.98,92.98,92.96,92.97,1202
256,92.93,92.97,92.93,92.95,4569
257,92.945,92.96,92.94,92.94,8001
258,92.95,92.96,92.94,92.945,4454
259,92.945,92.95,92.93,92.93,4371
260,92.97,92.97,92.945,92.945,1600
262,92.99,92.99,92.9712,92.99,4059
263,93.01,93.04,92.981,92.981,3542
264,93.05,93.05,93.04,93.04,1004
265,93.08,93.09,93.05,93.06,2410
266,93.04,93.0997,93.04,93.09,1518
267,93.03,93.03,93.02,93.03,300
268,93.03,93.03,93,93,4709
269,93,93.02,93,93.02,400
270,93,93.02,92.98,93.02,900
271,92.99,93.02,92.99,93.01,1100
272,93.04,93.05,92.99,93,2785
273,93.1833,93.1833,93.06,93.06,1297
274,93.17,93.17,93.12,93.15,1601
275,93.21,93.2261,93.19,93.19,787
276,93.18,93.22,93.18,93.22,800
277,93.12,93.17,93.12,93.17,600
278,93.1551,93.1551,93.125,93.13,1028
279,93.15,93.16,93.1392,93.14,914
280,93.13,93.1601,93.12,93.15,1897
281,93.1,93.14,93.1,93.14,4811
282,93.1,93.14,93.08,93.08,1400
283,92.99,93.1,92.99,93.1,2600
284,93.04,93.04,92.98,92.98,1144
285,93.02,93.04,93.02,93.04,700
286,93.04,93.04,93.01,93.03,1400
287,93.04,93.04,93.011,93.04,1600
288,93.1,93.12,93.06,93.06,2099
289,93.17,93.17,93.1,93.1,2293
290,93.12,93.16,93.12,93.16,971
291,93.17,93.17,93.13,93.13,1419
292,93.21,93.22,93.18,93.18,1300
293,93.19,93.21,93.18,93.21,650
294,93.17,93.17,93.17,93.17,212
295,93.1774,93.18,93.16,93.16,900
296,93.14,93.2,93.14,93.19,1376
297,93.11,93.14,93.11,93.14,700
298,93.044,93.103,93.044,93.103,1834
299,93.0737,93.08,93.05,93.05,2210
300,93.06,93.07,93,93.06,1390
301,92.99,93.04,92.99,93.04,1100
302,93,93.05,93,93,4100
303,93.01,93.01,93,93.01,813
304,92.98,93,92.98,93,600
305,92.99,93.01,92.99,92.99,1044
306,93,93.0008,92.99,93.0008,1100
307,93.03,93.03,93.01,93.01,700
308,93.028,93.028,93.01,93.02,308
309,93.05,93.05,93.025,93.025,1500
310,93.05,93.06,93.05,93.06,600
311,93.08,93.12,93.055,93.055,2621
312,93.05,93.07,93.03,93.07,3507
313,93.0533,93.08,93.045,93.045,2300
314,93.03,93.05,93.03,93.05,400
315,93.0385,93.05,93.0385,93.05,637
316,93.11,93.11,93.06,93.06,1000
317,93.17,93.17,93.12,93.12,1453
318,93.18,93.18,93.17,93.18,901
319,93.22,93.22,93.15,93.17,1961
320,93.17,93.205,93.15,93.19,2206
321,93.15,93.19,93.15,93.19,1500
322,93.12,93.13,93.12,93.13,200
323,93.105,93.12,93.105,93.12,1200
324,93.14,93.14,93.12,93.12,2204
325,93.1,93.15,93.1,93.14,2101
326,93.13,93.17,93.1,93.1,3532
327,93.11,93.12,93.11,93.12,300
328,93.13,93.15,93.11,93.11,6035
329,93.14,93.15,93.1,93.11,1800
330,93.11,93.16,93.11,93.16,727
331,93.09,93.11,93.09,93.11,789
332,93.06,93.08,93.06,93.07,1200
333,93.05,93.08,93.05,93.0603,1415
334,93.02,93.02,92.98,93.02,2010
335,93.12,93.13,93.03,93.03,3399
336,93.12,93.13,93.11,93.12,1151
337,93.09,93.13,93.09,93.13,2007
338,93.18,93.19,93.11,93.11,3998
339,93.17,93.17,93.13,93.17,2722
340,93.14,93.17,93.14,93.15,2050
341,93.16,93.16,93.1445,93.1445,700
342,93.1,93.14,93.1,93.14,1039
343,93.06,93.07,93.05,93.07,1202
344,93.02,93.05,93.02,93.05,1117
345,93.1,93.1,93.05,93.06,1306
346,93.155,93.155,93.08,93.09,3451
347,93.19,93.19,93.15,93.15,2052
348,93.2,93.2,93.2,93.2,150
349,93.15,93.15,93.12,93.14,604
350,93.17,93.18,93.15,93.16,909
351,93.1,93.15,93.1,93.15,300
352,93.04,93.07,93.04,93.06,603
353,93.06,93.07,93.05,93.05,1102
354,93.04,93.04,93.04,93.04,702
355,93.06,93.09,93.05,93.05,1909
356,93.07,93.09,93.06,93.06,1300
357,93.02,93.08,93.02,93.08,1601
358,92.99,93.01,92.99,93.01,445
359,93.01,93.01,92.96,92.97,1300
360,93.01,93.01,93.01,93.01,741
361,92.94,92.98,92.94,92.98,842
362,92.93,92.97,92.93,92.94,1561
