PPG,PPG Industries,Materials,8,Specialty Chemicals,28377950625,1538522
a1493386200,110.97,111.05,110.9,111.05,12982
1,110.9353,110.9353,110.9353,110.9353,100
2,110.7,111.0087,110.69,110.97,2966
3,110.71,110.79,110.71,110.79,200
4,110.67,110.77,110.65,110.72,2024
5,110.54,110.62,110.52,110.595,1600
6,110.5791,110.63,110.5,110.59,2580
7,110.6,110.66,110.52,110.63,1333
8,110.5,110.64,110.5,110.62,600
9,110.54,110.57,110.54,110.55,300
10,110.43,110.47,110.4,110.47,700
11,110.34,110.45,110.273,110.45,1800
12,110.42,110.44,110.38,110.38,1100
13,110.35,110.49,110.35,110.42,2300
14,110.38,110.39,110.36,110.37,700
15,110.5,110.52,110.4,110.4,1000
16,110.49,110.49,110.44,110.44,900
17,110.45,110.5,110.45,110.46,1500
18,110.47,110.53,110.41,110.44,4100
19,110.43,110.44,110.39,110.44,1345
20,110.39,110.44,110.39,110.42,1300
21,110.38,110.4,110.33,110.4,1600
22,110.34,110.38,110.33,110.38,400
23,110.38,110.4,110.36,110.38,800
24,110.4,110.4,110.38,110.39,300
25,110.28,110.3545,110.28,110.3545,916
26,110.325,110.35,110.32,110.32,700
27,110.31,110.33,110.31,110.33,400
28,110.35,110.35,110.32,110.32,1800
29,110.31,110.36,110.31,110.36,200
30,110.335,110.35,110.3163,110.35,349
31,110.37,110.43,110.28,110.34,4901
32,110.39,110.39,110.36,110.36,200
33,110.395,110.395,110.38,110.38,1300
34,110.37,110.38,110.36,110.38,700
35,110.37,110.37,110.32,110.35,1807
36,110.36,110.37,110.34,110.36,3118
37,110.44,110.44,110.32,110.36,2200
38,110.43,110.47,110.43,110.44,1300
39,110.29,110.42,110.29,110.42,800
40,110.36,110.36,110.32,110.35,600
41,110.37,110.38,110.36,110.37,1401
42,110.36,110.39,110.36,110.38,1900
43,110.4,110.41,110.395,110.395,300
44,110.44,110.44,110.41,110.41,300
45,110.44,110.44,110.44,110.44,100
46,110.34,110.42,110.32,110.42,2005
47,110.31,110.32,110.29,110.31,901
48,110.29,110.31,110.29,110.3,2000
49,110.2831,110.29,110.27,110.29,1700
50,110.27,110.28,110.25,110.28,1833
51,110.26,110.28,110.26,110.28,645
52,110.27,110.27,110.26,110.26,800
53,110.16,110.26,110.16,110.26,3501
54,110.15,110.19,110.15,110.18,900
56,110.05,110.14,110.05,110.14,1800
57,110.12,110.15,110.09,110.09,2103
58,110.15,110.15,110.14,110.14,300
59,110.16,110.17,110.16,110.16,1000
60,110.21,110.21,110.12,110.12,1300
62,110.22,110.23,110.21,110.23,800
63,110.25,110.25,110.19,110.22,3800
64,110.23,110.23,110.21,110.21,881
65,110.21,110.23,110.21,110.22,1100
66,110.22,110.22,110.19,110.2,1550
67,110.2384,110.25,110.2384,110.25,966
68,110.28,110.28,110.252,110.255,600
69,110.27,110.28,110.25,110.28,3693
70,110.23,110.26,110.23,110.26,2000
71,110.28,110.28,110.24,110.24,2200
72,110.28,110.2899,110.26,110.27,2525
73,110.31,110.33,110.29,110.29,1528
74,110.29,110.33,110.29,110.33,1801
75,110.26,110.28,110.25,110.28,1300
76,110.26,110.27,110.26,110.27,1500
77,110.24,110.25,110.24,110.25,701
78,110.21,110.24,110.21,110.24,1200
79,110.16,110.2,110.16,110.2,1901
80,110.21,110.22,110.17,110.17,1800
81,110.2,110.23,110.19,110.22,4826
82,110.25,110.25,110.19,110.19,3440
83,110.29,110.29,110.26,110.26,742
84,110.32,110.32,110.29,110.29,589
85,110.32,110.32,110.28,110.29,2657
86,110.31,110.31,110.31,110.31,300
87,110.35,110.35,110.3385,110.34,325
88,110.32,110.35,110.32,110.33,1101
89,110.37,110.37,110.34,110.34,840
90,110.32,110.36,110.32,110.36,4829
91,110.37,110.37,110.32,110.32,1700
92,110.44,110.44,110.37,110.37,2039
93,110.42,110.42,110.41,110.42,1000
94,110.39,110.41,110.39,110.41,1600
95,110.37,110.39,110.36,110.38,2200
97,110.39,110.4,110.34,110.36,3801
98,110.36,110.4,110.36,110.39,600
99,110.33,110.35,110.32,110.35,1700
101,110.31,110.34,110.31,110.34,1000
103,110.19,110.28,110.19,110.28,2999
104,110.19,110.24,110.16,110.19,3000
105,110.175,110.205,110.135,110.205,3134
106,110.14,110.17,110.09,110.17,2200
107,110.18,110.18,110.16,110.16,500
108,110.2,110.2,110.2,110.2,500
109,110.24,110.24,110.19,110.2,1777
110,110.23,110.235,110.22,110.22,1200
111,110.27,110.28,110.24,110.24,1600
112,110.3,110.3,110.26,110.2653,1075
113,110.3,110.3,110.3,110.3,100
114,110.35,110.35,110.31,110.31,1265
115,110.29,110.36,110.28,110.36,5901
116,110.26,110.34,110.13,110.2985,15734
117,110.31,110.31,110.31,110.31,200
118,110.3,110.33,110.28,110.29,2099
119,110.24,110.3,110.24,110.3,1701
120,110.24,110.25,110.23,110.2425,2450
121,110.25,110.25,110.24,110.24,1900
122,110.23,110.23,110.23,110.23,500
123,110.24,110.24,110.23,110.23,300
124,110.12,110.22,110.12,110.22,2800
125,110.2,110.2,110.15,110.15,3900
126,110.24,110.24,110.21,110.21,300
127,110.26,110.26,110.23,110.23,1400
128,110.24,110.24,110.21,110.23,700
129,110.25,110.28,110.23,110.25,4983
130,110.22,110.248,110.22,110.248,1004
131,110.14,110.21,110.14,110.21,901
132,110.21,110.22,110.17,110.18,1400
133,110.22,110.22,110.22,110.22,200
134,110.23,110.24,110.2,110.2,1000
135,110.23,110.24,110.23,110.24,300
136,110.18,110.235,110.18,110.235,2500
137,110.17,110.1805,110.17,110.18,737
138,110.15,110.17,110.13,110.17,1400
139,110.16,110.16,110.11,110.13,2250
140,110.15,110.15,110.13,110.14,400
141,110.15,110.19,110.1365,110.14,710
142,110.13,110.1669,110.13,110.1669,260
143,110.13,110.13,110.12,110.13,2400
145,110.2,110.2,110.13,110.15,1500
146,110.17,110.18,110.17,110.17,1002
147,110.18,110.2,110.18,110.2,200
148,110.17,110.18,110.17,110.18,1727
149,110.2,110.2,110.17,110.18,600
150,110.2,110.21,110.2,110.21,1311
151,110.28,110.28,110.22,110.22,2300
152,110.3,110.315,110.26,110.26,1109
153,110.32,110.32,110.29,110.29,250
155,110.3,110.34,110.3,110.33,3400
156,110.28,110.3,110.28,110.3,1770
157,110.26,110.27,110.255,110.27,1100
158,110.26,110.27,110.22,110.25,2000
159,110.25,110.28,110.25,110.28,2700
160,110.25,110.25,110.25,110.25,801
161,110.26,110.26,110.26,110.26,200
162,110.29,110.31,110.28,110.28,1900
163,110.25,110.29,110.25,110.29,1301
164,110.25,110.26,110.24,110.24,1550
165,110.27,110.27,110.27,110.27,100
166,110.28,110.28,110.28,110.28,100
167,110.27,110.29,110.27,110.29,400
168,110.25,110.29,110.25,110.29,2646
170,110.26,110.26,110.26,110.26,200
171,110.29,110.29,110.27,110.28,1000
172,110.3,110.3,110.27,110.27,200
173,110.27,110.3,110.27,110.27,1600
174,110.27,110.27,110.27,110.27,100
175,110.27,110.29,110.27,110.29,300
176,110.26,110.294,110.26,110.29,2320
177,110.29,110.29,110.27,110.27,600
178,110.29,110.29,110.29,110.29,100
179,110.29,110.29,110.278,110.28,971
180,110.27,110.28,110.26,110.28,700
181,110.29,110.3,110.29,110.29,900
183,110.26,110.28,110.26,110.28,1100
184,110.28,110.28,110.27,110.27,200
186,110.26,110.3,110.26,110.3,200
188,110.25,110.27,110.25,110.27,1600
189,110.25,110.25,110.25,110.25,400
190,110.23,110.23,110.23,110.23,400
191,110.25,110.25,110.22,110.22,1450
192,110.24,110.29,110.24,110.24,2520
193,110.27,110.27,110.24,110.24,700
194,110.29,110.29,110.28,110.28,356
195,110.29,110.29,110.29,110.29,200
196,110.305,110.31,110.3,110.31,900
197,110.26,110.29,110.26,110.29,1039
198,110.25,110.28,110.24,110.28,700
200,110.29,110.29,110.23,110.23,1700
201,110.28,110.305,110.28,110.3,1600
202,110.25,110.28,110.25,110.28,1000
205,110.23,110.23,110.23,110.23,100
206,110.26,110.26,110.23,110.242,2600
207,110.2522,110.26,110.2522,110.26,200
208,110.2872,110.2872,110.2872,110.2872,114
209,110.29,110.29,110.29,110.29,100
210,110.28,110.29,110.27,110.28,1100
211,110.25,110.29,110.25,110.2709,825
212,110.24,110.24,110.23,110.23,200
213,110.26,110.26,110.25,110.25,600
214,110.29,110.29,110.26,110.26,400
215,110.3,110.3,110.3,110.3,100
216,110.28,110.3,110.28,110.3,1000
217,110.24,110.2613,110.24,110.26,650
218,110.23,110.2385,110.21,110.2385,813
220,110.21,110.25,110.21,110.25,705
221,110.22,110.22,110.22,110.22,100
222,110.21,110.21,110.19,110.21,2069
223,110.24,110.24,110.23,110.23,500
224,110.24,110.24,110.24,110.24,100
225,110.22,110.22,110.22,110.22,200
226,110.19,110.24,110.19,110.24,900
227,110.2,110.22,110.18,110.18,1835
228,110.1719,110.2,110.1719,110.2,530
229,110.1899,110.1899,110.1899,110.1899,170
230,110.11,110.15,110.11,110.15,1400
231,110.14,110.14,110.12,110.12,754
232,110.144,110.144,110.13,110.13,207
233,110.16,110.17,110.16,110.16,600
234,110.17,110.18,110.16,110.16,700
235,110.12,110.16,110.12,110.16,700
236,110.14,110.14,110.12,110.12,240
238,110.11,110.12,110.11,110.11,300
239,110.14,110.14,110.1,110.1,1900
240,110.13,110.13,110.13,110.13,100
241,110.1,110.12,110.1,110.1,1100
242,110.12,110.12,110.1,110.11,400
243,110.15,110.15,110.12,110.13,869
244,110.13,110.145,110.13,110.145,200
246,110.14,110.15,110.12,110.12,1000
247,110.15,110.15,110.15,110.15,100
249,110.145,110.145,110.145,110.145,100
250,110.13,110.13,110.09,110.11,600
251,110.1,110.16,110.1,110.13,1338
252,110.11,110.11,110.09,110.1,700
253,110.1,110.1,110.1,110.1,101
254,110.08,110.08,110.06,110.08,700
255,110.065,110.07,110.04,110.05,900
256,110.05,110.08,110.05,110.07,1003
257,110.07,110.07,110.02,110.02,500
258,110.01,110.05,110.01,110.04,1214
259,110.01,110.0399,109.986,110.0399,808
260,109.98,109.98,109.98,109.98,200
261,109.98,109.98,109.97,109.98,400
262,109.97,110,109.96,110,1000
264,109.99,109.99,109.97,109.97,200
265,110,110,109.975,109.98,1401
266,109.97,109.995,109.95,109.99,1901
267,109.96,109.98,109.96,109.97,500
268,109.9706,109.9706,109.965,109.965,3425
269,109.93,109.94,109.93,109.94,200
270,109.94,109.94,109.9,109.92,2307
271,109.9,109.9,109.9,109.9,200
272,109.91,109.92,109.91,109.92,200
273,109.9,109.93,109.9,109.91,1030
274,109.9,109.93,109.88,109.918,2323
275,109.96,109.96,109.91,109.91,1200
277,109.94,109.94,109.93,109.94,400
278,109.95,109.99,109.95,109.96,1592
280,109.96,109.96,109.91,109.94,1094
282,109.91,109.94,109.91,109.94,400
283,109.84,109.8899,109.82,109.88,1119
284,109.85,109.85,109.81,109.81,300
285,109.8301,109.86,109.82,109.85,2887
286,109.85,109.87,109.85,109.87,407
287,109.84,109.86,109.84,109.85,400
288,109.86,109.87,109.85,109.87,400
289,109.9,109.9,109.88,109.88,300
290,109.88,109.88,109.88,109.88,100
291,109.81,109.87,109.81,109.87,2217
292,109.83,109.86,109.83,109.85,600
293,109.83,109.83,109.83,109.83,300
294,109.84,109.84,109.84,109.84,300
296,109.85,109.88,109.85,109.865,300
297,109.84,109.87,109.82,109.87,3420
298,109.85,109.85,109.835,109.835,617
299,109.84,109.8501,109.81,109.8501,4063
300,109.84,109.845,109.83,109.845,1200
301,109.83,109.83,109.83,109.83,100
302,109.9,109.9,109.87,109.87,1431
303,109.9,109.91,109.9,109.91,1200
304,109.92,109.93,109.9,109.9,900
305,109.94,109.94,109.92,109.92,200
306,109.93,109.94,109.92,109.94,1103
307,109.92,109.92,109.92,109.92,100
308,109.93,109.94,109.91,109.92,2075
309,109.92,109.92,109.92,109.92,300
310,109.97,110,109.94,109.94,9099
311,109.94,109.96,109.94,109.96,1200
312,109.92,109.93,109.89,109.93,1716
313,109.9014,109.9014,109.89,109.89,615
314,109.92,109.92,109.92,109.92,100
315,109.92,109.92,109.905,109.905,600
316,109.9172,109.93,109.915,109.927,535
317,109.94,109.94,109.91,109.91,1452
318,109.93,109.94,109.93,109.93,482
319,109.95,109.97,109.93,109.93,1400
320,109.94,109.96,109.94,109.95,700
321,109.97,109.98,109.96,109.96,1000
322,109.95,109.95,109.95,109.95,100
324,109.95,109.97,109.93,109.96,2289
325,109.97,109.99,109.95,109.95,1887
326,109.99,109.99,109.98,109.99,1657
327,109.98,109.98,109.98,109.98,200
328,109.97,109.99,109.97,109.97,2200
329,109.9698,109.973,109.96,109.97,1788
330,109.92,109.96,109.92,109.96,900
331,109.88,109.92,109.88,109.92,1900
332,109.91,109.92,109.89,109.89,2150
333,109.9375,109.9375,109.92,109.93,600
334,109.93,109.95,109.92,109.94,1571
335,109.94,109.95,109.92,109.93,2040
336,109.97,109.98,109.93,109.94,2983
337,110.02,110.02,109.97,109.98,1221
338,110.05,110.05,110.02,110.02,2200
339,110.03,110.05,110.03,110.04,8930
340,110.02,110.04,110.02,110.04,1800
341,109.99,109.99,109.99,109.99,700
342,110.02,110.03,110,110,1700
343,109.99,110.019,109.99,110.015,1381
344,109.99,110.02,109.99,109.995,1800
345,110.02,110.02,110,110,800
346,110.005,110.02,110,110.01,2122
347,110.01,110.03,110,110,4000
348,110,110.03,110,110.02,1129
349,110,110,110,110,300
350,109.99,110,109.99,109.995,700
351,109.97,109.97,109.97,109.97,100
353,109.94,109.96,109.94,109.96,334
354,109.93,109.93,109.92,109.92,415
355,109.92,109.94,109.92,109.93,622
356,109.95,109.95,109.95,109.95,200
357,109.92,109.94,109.92,109.94,401
358,109.92,109.92,109.91,109.91,400
359,109.94,109.94,109.92,109.92,512
360,109.93,109.93,109.92,109.93,375
361,109.96,109.96,109.93,109.93,1508
362,109.93,109.97,109.93,109.96,1600
363,109.9,109.93,109.9,109.92,1511
364,109.93,109.93,109.91,109.91,900
