PPG,PPG Industries,Materials,8,Specialty Chemicals,26028471767,1534024
a1503063120,102.85,102.85,102.43,102.43,69630
1,102.29,102.67,102.29,102.67,2232
2,102.28,102.28,102.28,102.28,100
3,102.21,102.2903,102.21,102.2903,800
4,102.17,102.1701,102.17,102.17,600
5,102.07,102.08,102.07,102.08,300
6,102.02,102.07,102.0101,102.07,700
7,101.95,102.03,101.95,102.03,913
8,102.02,102.03,101.99,101.99,1020
9,102.12,102.12,102.11,102.11,300
10,102.26,102.27,102.17,102.17,750
11,102.27,102.27,102.22,102.22,300
12,102.3,102.32,102.29,102.29,1131
13,102.2,102.265,102.2,102.265,300
14,102.2399,102.2399,102.18,102.18,1300
15,102.55,102.55,102.22,102.22,3400
17,102.51,102.55,102.48,102.55,2150
18,102.515,102.515,102.4879,102.4879,375
19,102.47,102.47,102.42,102.45,500
20,102.324,102.38,102.32,102.38,796
21,102.25,102.34,102.25,102.33,1308
22,102.35,102.38,102.19,102.2,4805
23,102.43,102.46,102.36,102.36,2400
24,102.385,102.435,102.36,102.4,2563
25,102.28,102.36,102.28,102.3501,1305
26,102.32,102.32,102.32,102.32,200
27,102.42,102.42,102.33,102.33,1900
28,102.48,102.49,102.37,102.41,2500
29,102.385,102.43,102.35,102.43,2122
30,102.38,102.44,102.38,102.42,1000
31,102.47,102.47,102.38,102.38,2700
32,102.41,102.51,102.37,102.51,2702
33,102.55,102.55,102.43,102.43,2600
34,102.57,102.6,102.52,102.52,48109
35,102.51,102.57,102.51,102.57,800
36,102.57,102.57,102.51,102.51,27199
37,102.55,102.59,102.53,102.55,30300
38,102.51,102.53,102.51,102.52,1000
39,102.45,102.56,102.41,102.51,1982
40,102.26,102.41,102.23,102.41,3889
41,102.28,102.4,102.255,102.26,11461
42,102.32,102.4,102.27,102.27,21511
43,102.33,102.33,102.29,102.29,3000
44,102.36,102.42,102.36,102.37,18411
45,102.35,102.42,102.35,102.39,23638
46,102.29,102.34,102.26,102.3,2000
47,102.3525,102.36,102.29,102.29,20517
48,102.31,102.325,102.31,102.3108,1175
49,102.37,102.37,102.3,102.33,22725
50,102.35,102.39,102.35,102.35,25835
51,102.3574,102.37,102.35,102.36,2951
52,102.46,102.48,102.35,102.35,23434
53,102.47,102.47,102.43,102.45,1911
54,102.48,102.48,102.45,102.48,4900
55,102.43,102.46,102.43,102.45,1050
56,102.41,102.41,102.4,102.41,700
57,102.405,102.42,102.405,102.405,300
58,102.46,102.46,102.405,102.405,1200
59,102.44,102.47,102.42,102.47,2517
60,102.4,102.46,102.37,102.44,4600
61,102.41,102.44,102.4,102.415,19989
62,102.45,102.49,102.41,102.42,10249
63,102.49,102.51,102.46,102.46,2797
64,102.56,102.57,102.52,102.52,2460
65,102.52,102.58,102.52,102.58,2656
66,102.56,102.57,102.53,102.53,1100
67,102.55,102.57,102.53,102.57,5101
68,102.53,102.56,102.53,102.54,800
69,102.545,102.545,102.53,102.53,500
70,102.41,102.53,102.41,102.53,1889
71,102.46,102.48,102.43,102.43,2017
72,102.4152,102.47,102.4152,102.47,388
73,102.45,102.47,102.44,102.44,800
74,102.45,102.45,102.4085,102.43,1600
75,102.48,102.48,102.455,102.455,200
76,102.48,102.56,102.46,102.46,1600
77,102.47,102.47,102.45,102.45,400
78,102.49,102.49,102.44,102.465,300
79,102.46,102.5,102.45,102.47,1532
80,102.45,102.46,102.44,102.445,1200
81,102.41,102.42,102.4,102.42,400
82,102.48,102.5,102.415,102.42,1400
83,102.48,102.5,102.43,102.475,1200
84,102.47,102.47,102.46,102.47,700
85,102.46,102.47,102.386,102.47,3100
86,102.5,102.5,102.46,102.46,2500
87,102.44,102.5,102.44,102.5,1600
89,102.5,102.505,102.45,102.46,2000
90,102.5,102.52,102.47,102.52,500
91,102.41,102.49,102.41,102.49,873
93,102.46,102.51,102.45,102.45,4166
95,102.45,102.47,102.44,102.45,700
96,102.4,102.44,102.4,102.44,400
97,102.47,102.47,102.43,102.44,1000
98,102.47,102.485,102.46,102.47,1200
99,102.48,102.48,102.465,102.465,500
100,102.5,102.5,102.47,102.48,848
101,102.495,102.5,102.495,102.5,200
102,102.44,102.47,102.44,102.465,800
103,102.4201,102.44,102.4201,102.44,369
104,102.48,102.485,102.41,102.42,3213
105,102.49,102.49,102.48,102.48,1670
106,102.45,102.49,102.44,102.48,11700
107,102.45,102.48,102.43,102.45,9737
108,102.45,102.48,102.43,102.48,20316
109,102.44,102.47,102.44,102.47,4800
110,102.44,102.48,102.44,102.46,13330
111,102.45,102.46,102.41,102.44,3290
112,102.45,102.46,102.45,102.45,2880
113,102.45,102.46,102.4484,102.4484,1802
114,102.44,102.46,102.43,102.44,6818
115,102.41,102.44,102.41,102.44,1300
116,102.45,102.46,102.42,102.44,3415
117,102.45,102.46,102.42,102.45,4775
118,102.45,102.47,102.44,102.45,8284
119,102.4,102.4512,102.4,102.4512,1230
120,102.46,102.46,102.39,102.41,2754
121,102.6,102.6,102.47,102.47,2477
122,102.6,102.61,102.59,102.6,600
123,102.68,102.68,102.62,102.62,2222
124,102.655,102.685,102.655,102.685,809
125,102.59,102.655,102.57,102.655,5700
126,102.585,102.63,102.55,102.59,3220
127,102.59,102.61,102.58,102.6,4700
128,102.6,102.6,102.57,102.58,1813
129,102.56,102.61,102.56,102.6,2202
130,102.57,102.57,102.56,102.56,200
131,102.56,102.56,102.55,102.55,500
132,102.6,102.605,102.58,102.58,2300
133,102.59,102.625,102.59,102.6,4346
134,102.51,102.6,102.5,102.6,4282
135,102.59,102.595,102.54,102.54,950
136,102.59,102.59,102.56,102.56,400
137,102.59,102.59,102.58,102.59,500
138,102.59,102.61,102.57,102.6,4850
139,102.6,102.61,102.59,102.6,2850
140,102.6,102.61,102.6,102.6,2200
141,102.58,102.61,102.57,102.61,3541
142,102.555,102.61,102.55,102.6,5800
143,102.53,102.57,102.52,102.53,7063
144,102.53,102.53,102.53,102.53,300
146,102.53,102.55,102.53,102.55,2328
147,102.53,102.53,102.51,102.51,200
148,102.53,102.53,102.53,102.53,200
149,102.54,102.54,102.54,102.54,400
150,102.53,102.55,102.515,102.55,900
151,102.5,102.5,102.49,102.49,623
152,102.475,102.475,102.475,102.475,100
153,102.47,102.55,102.47,102.5,3200
154,102.5,102.5,102.4992,102.4992,200
155,102.5,102.51,102.49,102.49,1400
156,102.47,102.47,102.47,102.47,700
157,102.46,102.49,102.46,102.48,400
158,102.47,102.48,102.46,102.48,300
159,102.48,102.48,102.46,102.46,500
160,102.4432,102.495,102.4432,102.48,1955
161,102.475,102.475,102.46,102.46,400
162,102.44,102.47,102.44,102.46,500
164,102.48,102.49,102.45,102.47,20650
165,102.53,102.53,102.44,102.49,10637
166,102.51,102.51,102.51,102.51,400
167,102.45,102.5,102.45,102.49,958
168,102.465,102.465,102.465,102.465,100
169,102.49,102.49,102.47,102.4746,874
170,102.48,102.5,102.48,102.5,200
171,102.51,102.52,102.495,102.495,890
172,102.4862,102.4862,102.4862,102.4862,100
173,102.46,102.52,102.46,102.52,500
174,102.46,102.5,102.46,102.49,300
175,102.4766,102.49,102.46,102.46,1481
176,102.51,102.52,102.43,102.5,14859
177,102.6,102.6,102.51,102.51,1300
178,102.56,102.61,102.56,102.6,4100
179,102.57,102.59,102.52,102.56,3900
180,102.56,102.56,102.52,102.535,1278
181,102.55,102.57,102.55,102.56,2437
182,102.535,102.57,102.535,102.56,4223
183,102.56,102.56,102.53,102.55,1700
184,102.54,102.54,102.54,102.54,300
185,102.55,102.56,102.53,102.54,2438
186,102.53,102.55,102.53,102.54,2399
187,102.54,102.54,102.5,102.52,10660
188,102.5,102.54,102.5,102.53,5790
189,102.58,102.62,102.5,102.5,28258
190,102.55,102.6,102.53,102.56,20306
191,102.5436,102.6,102.54,102.565,17976
192,102.69,102.69,102.55,102.56,11365
193,102.61,102.71,102.61,102.71,2299
194,102.65,102.69,102.61,102.66,800
195,102.55,102.64,102.54,102.6,7862
196,102.55,102.57,102.49,102.55,5351
197,102.54,102.56,102.53,102.55,1877
198,102.55,102.57,102.54,102.55,13627
199,102.55,102.56,102.53,102.541,3939
200,102.55,102.56,102.54,102.55,2805
201,102.52,102.55,102.52,102.55,1407
202,102.525,102.56,102.501,102.501,3959
203,102.54,102.54,102.52,102.525,643
204,102.45,102.55,102.45,102.535,1158
205,102.525,102.525,102.5,102.5,894
206,102.53,102.53,102.53,102.53,100
207,102.525,102.53,102.52,102.53,500
208,102.49,102.52,102.45,102.52,2750
209,102.46,102.46,102.45,102.45,200
210,102.51,102.51,102.42,102.49,3610
211,102.41,102.46,102.4,102.44,1259
212,102.385,102.43,102.3773,102.42,1200
213,102.38,102.39,102.38,102.39,400
214,102.38,102.38,102.375,102.375,200
215,102.39,102.4,102.375,102.375,1955
216,102.36,102.385,102.3,102.38,3250
217,102.37,102.38,102.355,102.3664,1792
218,102.35,102.355,102.33,102.355,2348
219,102.34,102.34,102.34,102.34,230
220,102.34,102.34,102.34,102.34,300
221,102.36,102.38,102.325,102.36,4200
222,102.35,102.355,102.33,102.3395,3300
223,102.36,102.38,102.32,102.33,3602
224,102.35,102.36,102.31,102.36,2650
225,102.39,102.4,102.345,102.345,4100
226,102.4475,102.4475,102.39,102.39,22500
227,102.455,102.51,102.455,102.5,1800
228,102.42,102.46,102.42,102.45,1395
229,102.37,102.415,102.37,102.415,998
230,102.36,102.38,102.34,102.38,1700
231,102.355,102.37,102.355,102.355,900
232,102.39,102.42,102.36,102.36,3198
233,102.375,102.375,102.375,102.375,100
234,102.38,102.38,102.38,102.38,200
235,102.38,102.395,102.375,102.38,1720
236,102.395,102.395,102.395,102.395,100
237,102.37,102.39,102.36,102.39,3786
239,102.385,102.385,102.371,102.371,800
240,102.41,102.41,102.39,102.39,2399
241,102.43,102.445,102.42,102.445,4842
242,102.46,102.5,102.44,102.44,900
244,102.47,102.47,102.44,102.44,1300
245,102.4,102.44,102.4,102.43,3876
246,102.43,102.43,102.4,102.4,500
247,102.37,102.41,102.37,102.41,1100
248,102.42,102.42,102.4,102.4,650
249,102.44,102.485,102.44,102.44,2002
250,102.395,102.42,102.395,102.42,757
251,102.405,102.405,102.405,102.405,100
252,102.425,102.43,102.42,102.42,1850
253,102.42,102.42,102.42,102.42,617
254,102.44,102.44,102.4123,102.4123,670
255,102.44,102.44,102.43,102.43,300
256,102.48,102.48,102.43,102.44,1000
257,102.4124,102.48,102.4124,102.48,1377
258,102.44,102.44,102.4156,102.4156,640
259,102.47,102.48,102.44,102.46,1904
260,102.46,102.48,102.46,102.48,1100
261,102.45,102.48,102.45,102.46,902
262,102.455,102.455,102.44,102.44,900
263,102.46,102.47,102.46,102.47,500
264,102.48,102.48,102.465,102.47,900
265,102.47,102.481,102.47,102.481,1144
266,102.45,102.47,102.45,102.46,957
267,102.45,102.46,102.4367,102.44,2859
268,102.41,102.43,102.41,102.43,493
269,102.42,102.42,102.4,102.41,1200
270,102.4,102.44,102.39,102.44,2100
271,102.42,102.44,102.42,102.44,300
272,102.41,102.43,102.4079,102.4079,1886
273,102.435,102.44,102.43,102.43,900
274,102.43,102.455,102.43,102.44,2750
275,102.41,102.42,102.41,102.42,614
276,102.43,102.43,102.4,102.4,1300
277,102.45,102.45,102.42,102.4399,4187
279,102.45,102.455,102.43,102.45,2185
280,102.46,102.46,102.445,102.445,200
281,102.46,102.46,102.45,102.45,1531
282,102.45,102.45,102.43,102.45,3673
283,102.43,102.45,102.43,102.45,888
285,102.43,102.43,102.4102,102.42,1099
286,102.415,102.415,102.415,102.415,100
287,102.425,102.44,102.425,102.43,1381
288,102.44,102.44,102.42,102.42,905
289,102.43,102.44,102.4284,102.4284,1032
290,102.44,102.44,102.43,102.44,1432
292,102.44,102.45,102.43,102.44,1225
294,102.45,102.46,102.43,102.45,3400
295,102.45,102.46,102.44,102.46,1813
296,102.43,102.46,102.43,102.45,3100
297,102.43,102.43,102.42,102.43,1000
298,102.44,102.45,102.43,102.44,1637
299,102.38,102.41,102.38,102.41,2800
300,102.41,102.43,102.41,102.41,2255
301,102.43,102.445,102.43,102.43,1928
302,102.45,102.45,102.44,102.44,866
303,102.44,102.45,102.44,102.44,500
304,102.45,102.45,102.44,102.44,971
305,102.43,102.46,102.43,102.45,4652
306,102.42,102.43,102.42,102.43,1400
307,102.43,102.46,102.43,102.43,13015
308,102.415,102.419,102.4,102.41,1700
309,102.525,102.53,102.41,102.415,4301
310,102.515,102.525,102.491,102.52,933
311,102.57,102.57,102.515,102.515,1550
312,102.55,102.62,102.55,102.61,5566
313,102.55,102.56,102.54,102.54,2606
314,102.545,102.55,102.54,102.54,800
315,102.55,102.56,102.533,102.539,1200
316,102.53,102.55,102.53,102.55,1402
317,102.53,102.55,102.52,102.53,900
318,102.55,102.5525,102.54,102.54,2833
319,102.52,102.55,102.52,102.545,1758
320,102.53,102.53,102.53,102.53,200
321,102.55,102.55,102.535,102.535,1100
322,102.51,102.54,102.51,102.54,4624
323,102.5,102.51,102.5,102.51,1200
325,102.5,102.505,102.495,102.5,2800
326,102.5,102.51,102.49,102.51,3238
327,102.5,102.505,102.5,102.5,3300
328,102.48,102.49,102.48,102.49,400
329,102.471,102.49,102.46,102.48,2607
330,102.475,102.49,102.475,102.49,500
331,102.48,102.49,102.47,102.4897,1474
332,102.45,102.47,102.45,102.47,1367
333,102.45,102.47,102.45,102.45,1200
334,102.46,102.47,102.45,102.45,4122
335,102.49,102.49,102.465,102.47,1804
336,102.4649,102.49,102.4649,102.485,1822
337,102.47,102.5,102.46,102.48,6973
338,102.45,102.5,102.45,102.465,9606
339,102.455,102.455,102.455,102.455,300
340,102.43,102.4517,102.43,102.44,1232
341,102.42,102.44,102.42,102.435,800
342,102.4,102.42,102.4,102.42,600
343,102.39,102.41,102.38,102.41,7000
344,102.4,102.4,102.39,102.4,1805
345,102.4,102.4,102.39,102.4,1000
346,102.39,102.4,102.38,102.39,1400
347,102.36,102.37,102.35,102.37,500
348,102.39,102.39,102.355,102.355,1510
349,102.39,102.405,102.38,102.4,5944
350,102.33,102.38,102.33,102.37,4390
351,102.34,102.35,102.33,102.35,1000
352,102.35,102.35,102.34,102.35,1677
353,102.4,102.4,102.36,102.36,3216
354,102.39,102.395,102.39,102.395,811
355,102.37,102.43,102.37,102.38,7402
357,102.38,102.39,102.38,102.38,4360
358,102.37,102.38,102.365,102.38,2948
359,102.37,102.37,102.365,102.365,2810
360,102.37,102.37,102.35,102.36,3076
361,102.38,102.39,102.38,102.38,1200
362,102.38,102.38,102.37,102.37,600
363,102.37,102.39,102.36,102.37,5342
364,102.38,102.4,102.35,102.35,7813
365,102.395,102.395,102.37,102.38,4541
366,102.38,102.4,102.37,102.39,10783
367,102.38,102.39,102.3775,102.38,5598
368,102.35,102.39,102.34,102.385,4673
369,102.4,102.41,102.33,102.33,4602
370,102.41,102.42,102.39,102.4,3738
371,102.4,102.41,102.4,102.41,4466
372,102.4,102.41,102.39,102.4,2791
373,102.37,102.395,102.37,102.395,6376
374,102.39,102.41,102.38,102.38,11264
375,102.395,102.415,102.39,102.4,4000
376,102.355,102.39,102.355,102.39,3033
377,102.33,102.36,102.33,102.36,1800
378,102.31,102.33,102.31,102.33,2499
379,102.3,102.31,102.27,102.305,7637
380,102.28,102.31,102.28,102.31,2200
381,102.34,102.34,102.265,102.28,4344
382,102.335,102.35,102.33,102.33,3799
383,102.33,102.35,102.32,102.33,8074
384,102.275,102.33,102.22,102.32,10418
385,102.28,102.28,102.27,102.28,3862
386,102.22,102.28,102.22,102.28,16056
387,102.22,102.225,102.21,102.22,7350
388,102.09,102.215,101.99,102.21,116872
