EOG,EOG Resources,Energy,3,Oil & Gas Exploration & Production,49842506237,3179522
a1504272600,84.96,85,84.96,85,22171
1,84.99,85.09,84.85,84.96,9936
2,84.99,85.084,84.95,85.035,7636
3,84.945,85.04,84.92,85,5198
4,84.93,84.98,84.88,84.945,3420
5,84.93,85.01,84.91,85,6587
6,84.87,85,84.82,84.93,18087
7,84.86,84.99,84.83,84.89,4263
8,84.83,84.88,84.83,84.845,1800
9,84.78,84.84,84.74,84.84,3725
10,84.81,84.87,84.73,84.8,12400
11,84.64,84.76,84.64,84.76,6150
12,84.64,84.72,84.59,84.6703,6449
13,84.72,84.72,84.62,84.67,1100
15,84.91,84.91,84.9,84.9,500
16,84.9573,85,84.91,84.935,6742
17,84.885,84.99,84.885,84.99,2300
18,84.73,84.88,84.73,84.83,4600
19,84.77,84.78,84.69,84.74,3774
20,84.845,84.86,84.694,84.77,3005
21,84.94,84.94,84.94,84.94,300
22,84.889,84.97,84.85,84.96,7958
23,84.755,84.91,84.755,84.91,3200
24,84.7,84.81,84.66,84.79,2434
25,84.79,84.79,84.65,84.7,3076
26,84.87,84.87,84.78,84.79,4700
27,84.9,84.9,84.83,84.89,4428
28,84.9,85.005,84.87,84.92,9051
29,84.93,84.99,84.92,84.92,2500
30,85.04,85.04,84.93,84.94,2484
31,84.97,85.03,84.9,85.03,11085
32,85.06,85.06,84.97,84.97,6226
33,85.01,85.06,85,85.06,3725
34,85.0469,85.07,85.025,85.03,3152
35,85.0876,85.1,85,85.07,3927
36,85.04,85.11,85.04,85.1,1964
37,85,85.07,84.99,85.05,5061
38,85.04,85.08,85,85,8889
39,85.05,85.06,84.96,85.06,8360
40,85,85.07,84.95,85.07,4775
41,85.01,85.04,84.985,85,4779
42,84.975,85.07,84.96,85.04,2448
43,85.01,85.02,84.97,84.98,2250
44,85.01,85.02,84.99,85.01,8391
45,85.1,85.1,85.01,85.01,2400
46,85.03,85.08,85.03,85.08,1828
47,85.07,85.07,85.01,85.03,2701
48,85.11,85.11,85.075,85.075,2400
49,85.21,85.21,85.13,85.16,3434
50,85.19,85.21,85.13,85.1933,4925
51,85.17,85.2,85.16,85.2,2500
52,85.2775,85.28,85.18,85.18,2298
53,85.2156,85.28,85.2,85.26,3054
54,85.21,85.21,85.2,85.2,300
55,85.2099,85.23,85.18,85.21,1600
56,85.2,85.21,85.17,85.18,800
57,85.175,85.185,85.15,85.185,2700
58,85.11,85.18,85.11,85.16,3700
59,85.15,85.18,85.08,85.09,7692
60,85.18,85.22,85.14,85.15,2404
61,85.21,85.23,85.19,85.1901,2114
62,85.315,85.37,85.22,85.22,5025
63,85.32,85.37,85.2972,85.2972,3457
64,85.28,85.36,85.28,85.33,1500
65,85.35,85.39,85.31,85.32,5295
66,85.37,85.37,85.37,85.37,200
67,85.42,85.42,85.4,85.4,2050
68,85.36,85.4,85.33,85.39,3572
69,85.3901,85.4,85.34,85.355,3200
70,85.35,85.4,85.35,85.4,3200
71,85.36,85.37,85.33,85.36,4497
72,85.4,85.4,85.32,85.36,1910
73,85.42,85.42,85.41,85.41,2822
74,85.47,85.49,85.42,85.42,31612
75,85.51,85.51,85.44,85.44,3650
76,85.5,85.52,85.49,85.52,5626
77,85.49,85.52,85.49,85.5124,1950
78,85.6,85.6,85.48,85.49,8499
79,85.6,85.6,85.55,85.59,4112
80,85.68,85.69,85.589,85.6,9594
81,85.71,85.75,85.68,85.68,3800
82,85.73,85.75,85.73,85.75,492
83,85.635,85.73,85.6,85.72,5822
84,85.605,85.67,85.59,85.62,3700
85,85.55,85.58,85.53,85.58,1100
86,85.6,85.6,85.53,85.54,1000
87,85.5379,85.6,85.5379,85.6,2069
88,85.6275,85.63,85.52,85.53,5252
89,85.72,85.72,85.65,85.66,600
90,85.75,85.77,85.66,85.72,4505
91,85.76,85.81,85.76,85.77,6332
92,85.71,85.79,85.7,85.78,5650
93,85.73,85.76,85.68,85.755,1906
94,85.68,85.73,85.65,85.73,2500
95,85.65,85.68,85.59,85.68,8200
96,85.62,85.62,85.58,85.61,2000
97,85.65,85.65,85.58,85.629,18091
98,85.6,85.7,85.6,85.61,4517
99,85.65,85.665,85.62,85.64,2200
100,85.66,85.665,85.64,85.65,4060
101,85.665,85.69,85.64,85.67,3843
102,85.6,85.67,85.58,85.67,10320
103,85.59,85.62,85.56,85.61,3300
104,85.57,85.6,85.52,85.6,3408
105,85.55,85.58,85.49,85.58,9022
106,85.53,85.57,85.4701,85.56,6311
107,85.56,85.57,85.5,85.5,5116
108,85.64,85.64,85.57,85.57,5617
109,85.6,85.64,85.57,85.64,3020
110,85.6,85.6,85.6,85.6,100
111,85.52,85.62,85.52,85.6,3209
112,85.58,85.58,85.54,85.54,1648
113,85.62,85.67,85.565,85.58,5322
114,85.575,85.65,85.53,85.61,2522
115,85.66,85.7,85.59,85.59,3556
116,85.57,85.604,85.57,85.604,876
117,85.6,85.64,85.57,85.6,3400
118,85.53,85.66,85.53,85.6,5204
119,85.59,85.62,85.52,85.55,10000
120,85.64,85.64,85.54,85.55,3064
121,85.6,85.67,85.58,85.66,3064
122,85.5,85.6,85.5,85.6,8150
123,85.46,85.505,85.41,85.505,3700
124,85.46,85.48,85.44,85.46,2337
125,85.525,85.53,85.46,85.46,3292
126,85.53,85.54,85.5,85.5,4300
127,85.59,85.59,85.52,85.52,2400
128,85.555,85.6,85.55,85.59,4672
129,85.49,85.555,85.49,85.54,4700
130,85.5286,85.5286,85.49,85.49,6278
131,85.535,85.535,85.51,85.52,2190
132,85.55,85.55,85.53,85.535,3500
133,85.595,85.62,85.54,85.55,11000
134,85.59,85.64,85.56,85.58,17811
135,85.63,85.63,85.587,85.5889,7740
136,85.65,85.67,85.61,85.63,3560
137,85.565,85.64,85.56,85.64,2300
138,85.5,85.565,85.5,85.5593,9530
139,85.46,85.485,85.45,85.48,11316
140,85.455,85.48,85.44,85.46,22838
141,85.48,85.49,85.45,85.46,22437
142,85.46,85.49,85.45,85.48,14358
143,85.49,85.49,85.44,85.462,4984
144,85.48,85.49,85.44,85.46,1400
145,85.48,85.49,85.4478,85.47,4350
146,85.47,85.51,85.45,85.48,5094
147,85.445,85.47,85.44,85.47,9709
148,85.44,85.46,85.42,85.44,16161
149,85.45,85.46,85.44,85.45,6863
150,85.45,85.46,85.41,85.44,7308
151,85.43,85.44,85.39,85.43,5027
152,85.44,85.44,85.42,85.42,3200
153,85.44,85.45,85.42,85.44,4125
154,85.4517,85.47,85.4084,85.415,3204
155,85.44,85.46,85.43,85.44,1311
156,85.47,85.47,85.44,85.44,1489
157,85.5,85.5,85.48,85.48,1605
158,85.47,85.5,85.47,85.5,2130
159,85.48,85.5,85.45,85.45,2300
160,85.46,85.5,85.46,85.47,1215
161,85.46,85.46,85.45,85.46,1571
162,85.46,85.47,85.45,85.47,8300
163,85.49,85.49,85.47,85.47,900
164,85.52,85.53,85.47,85.47,6800
165,85.48,85.515,85.461,85.515,2760
166,85.49,85.49,85.47,85.49,1880
167,85.48,85.49,85.47,85.475,4215
168,85.51,85.51,85.48,85.49,2212
169,85.53,85.54,85.505,85.51,3274
170,85.54,85.54,85.54,85.54,100
171,85.57,85.57,85.53,85.53,2594
172,85.56,85.59,85.55,85.5675,3514
173,85.6,85.6,85.56,85.56,1000
174,85.64,85.66,85.6,85.6,2559
175,85.62,85.67,85.62,85.67,2115
176,85.62,85.66,85.62,85.64,1900
177,85.6,85.63,85.595,85.63,1300
178,85.59,85.6,85.56,85.58,4100
179,85.6,85.64,85.59,85.609,2454
180,85.56,85.6,85.55,85.58,4700
181,85.58,85.6,85.58,85.59,3264
182,85.61,85.61,85.56,85.59,4000
183,85.59,85.63,85.59,85.6,700
184,85.56,85.59,85.56,85.59,1000
185,85.555,85.56,85.54,85.555,1300
186,85.565,85.57,85.5325,85.57,1800
187,85.55,85.56,85.54,85.56,1225
188,85.545,85.545,85.53,85.5428,1231
189,85.6,85.6,85.53,85.53,5941
190,85.6,85.61,85.59,85.61,2575
191,85.6,85.62,85.58,85.6,6817
192,85.55,85.58,85.53,85.58,1400
193,85.53,85.545,85.52,85.53,4120
194,85.53,85.55,85.51,85.53,2322
195,85.54,85.54,85.525,85.525,1600
196,85.485,85.53,85.48,85.53,3400
197,85.5,85.51,85.48,85.48,2000
198,85.5,85.5,85.5,85.5,300
199,85.53,85.53,85.5,85.5,2600
200,85.49,85.52,85.47,85.52,3600
201,85.51,85.53,85.485,85.4904,3186
202,85.5,85.5,85.49,85.49,900
203,85.4925,85.4925,85.48,85.48,300
204,85.51,85.51,85.49,85.51,324
205,85.51,85.51,85.4701,85.4701,500
206,85.5,85.51,85.49,85.51,1537
207,85.525,85.56,85.495,85.5,7720
208,85.525,85.525,85.51,85.51,600
209,85.54,85.54,85.53,85.54,2500
210,85.6,85.6,85.56,85.56,800
211,85.585,85.61,85.57,85.6,6056
212,85.58,85.5843,85.56,85.5843,3644
213,85.56,85.58,85.54,85.58,2500
214,85.59,85.63,85.55,85.55,8575
215,85.59,85.6,85.57,85.59,905
216,85.6,85.6,85.6,85.6,100
217,85.57,85.6,85.56,85.6,3700
218,85.59,85.59,85.54,85.56,2800
219,85.62,85.62,85.61,85.61,800
220,85.62,85.62,85.6056,85.61,325
221,85.59,85.59,85.59,85.59,100
222,85.58,85.61,85.58,85.61,700
223,85.62,85.62,85.61,85.62,1371
224,85.67,85.67,85.63,85.63,2478
225,85.68,85.68,85.68,85.68,100
226,85.68,85.68,85.67,85.68,1300
227,85.75,85.76,85.69,85.69,6661
228,85.78,85.79,85.753,85.76,5262
229,85.8299,85.855,85.75,85.7501,11063
230,85.8,85.8,85.8,85.8,1000
231,85.8,85.82,85.78,85.8,2350
232,85.79,85.8,85.76,85.8,1400
233,85.73,85.79,85.73,85.76,2230
234,85.76,85.76,85.76,85.76,100
235,85.67,85.72,85.67,85.72,1200
236,85.67,85.68,85.66,85.67,600
237,85.67,85.7,85.66,85.66,2500
238,85.6714,85.68,85.655,85.675,1061
239,85.64,85.68,85.64,85.68,3918
240,85.65,85.65,85.63,85.65,1800
241,85.66,85.69,85.66,85.66,3400
242,85.6859,85.695,85.67,85.68,2000
243,85.685,85.7,85.67,85.67,1300
244,85.69,85.7,85.69,85.69,2270
245,85.67,85.67,85.67,85.67,300
246,85.65,85.65,85.62,85.64,2400
247,85.6768,85.68,85.63,85.64,1010
248,85.643,85.69,85.643,85.69,649
249,85.66,85.7,85.655,85.655,1400
250,85.69,85.69,85.69,85.69,100
251,85.6231,85.6532,85.62,85.64,2285
252,85.63,85.63,85.6,85.62,4800
253,85.59,85.65,85.59,85.64,1500
254,85.61,85.61,85.59,85.6,3200
255,85.6,85.63,85.595,85.595,2300
256,85.59,85.62,85.59,85.6,3698
257,85.61,85.62,85.59,85.59,3700
258,85.63,85.63,85.6,85.62,5050
259,85.72,85.72,85.62,85.63,6420
260,85.715,85.73,85.69,85.71,3400
261,85.71,85.73,85.71,85.715,2700
262,85.72,85.73,85.695,85.7,5000
263,85.765,85.78,85.7,85.72,7801
264,85.73,85.75,85.73,85.75,2783
265,85.76,85.76,85.76,85.76,300
266,85.71,85.74,85.71,85.74,1400
267,85.6975,85.72,85.68,85.72,2210
268,85.585,85.7,85.585,85.7,8706
269,85.5802,85.59,85.56,85.58,1622
270,85.58,85.59,85.56,85.59,4010
271,85.58,85.63,85.57,85.57,7050
272,85.565,85.58,85.5575,85.58,810
273,85.6,85.6,85.565,85.58,1610
274,85.46,85.59,85.45,85.59,4234
275,85.47,85.5,85.39,85.455,6996
276,85.47,85.49,85.45,85.49,600
277,85.44,85.47,85.43,85.46,2450
278,85.47,85.48,85.45,85.45,1400
279,85.5,85.5,85.485,85.485,300
280,85.455,85.4825,85.45,85.4825,10536
281,85.505,85.53,85.455,85.455,3194
282,85.495,85.52,85.4801,85.52,1005
283,85.4825,85.51,85.47,85.48,3000
284,85.53,85.53,85.5,85.51,3300
285,85.495,85.525,85.4839,85.525,1155
286,85.51,85.52,85.49,85.49,2800
287,85.53,85.55,85.505,85.51,3908
288,85.495,85.53,85.49,85.52,5703
289,85.485,85.505,85.48,85.49,13361
290,85.515,85.515,85.48,85.48,12527
291,85.52,85.53,85.49,85.5,6000
292,85.53,85.55,85.51,85.52,4702
293,85.54,85.57,85.495,85.51,10540
294,85.5825,85.59,85.51,85.52,10234
295,85.58,85.58,85.56,85.57,4000
296,85.61,85.61,85.57,85.57,4909
297,85.58,85.595,85.57,85.58,9150
298,85.625,85.66,85.59,85.6,5200
299,85.66,85.66,85.64,85.64,1150
300,85.63,85.68,85.61,85.68,3136
301,85.6,85.68,85.6,85.6324,1801
302,85.617,85.619,85.5941,85.5941,1167
303,85.61,85.62,85.6,85.605,1873
304,85.6,85.6,85.59,85.6,1100
305,85.59,85.62,85.59,85.61,2400
306,85.59,85.6,85.585,85.6,2900
307,85.6,85.6,85.58,85.59,2500
308,85.6,85.6,85.58,85.6,4000
309,85.6,85.61,85.57,85.61,7834
310,85.66,85.66,85.59,85.59,1900
311,85.62,85.66,85.61,85.66,1300
312,85.62,85.63,85.62,85.63,500
313,85.58,85.61,85.58,85.61,4100
314,85.63,85.65,85.58,85.58,2600
315,85.64,85.64,85.61,85.61,500
316,85.63,85.65,85.63,85.65,700
317,85.595,85.63,85.59,85.63,1900
318,85.605,85.61,85.59,85.595,2300
319,85.598,85.6,85.575,85.59,2500
320,85.61,85.61,85.58,85.59,1500
321,85.61,85.61,85.58,85.6,2200
322,85.61,85.63,85.6,85.63,475
323,85.62,85.63,85.62,85.63,1600
324,85.63,85.63,85.59,85.59,800
325,85.63,85.65,85.63,85.64,800
326,85.615,85.6291,85.58,85.62,7344
327,85.585,85.61,85.56,85.61,8698
328,85.6,85.6,85.56,85.57,6100
329,85.6,85.61,85.6,85.61,800
330,85.6,85.62,85.59,85.6,1769
331,85.61,85.61,85.6,85.6,2029
332,85.6,85.63,85.6,85.61,3350
333,85.6,85.6,85.57,85.6,2584
334,85.6,85.6,85.58,85.58,3838
335,85.6,85.61,85.58,85.59,600
336,85.63,85.63,85.58,85.61,5010
337,85.57,85.62,85.57,85.62,6848
338,85.6,85.61,85.57,85.57,4478
339,85.59,85.6,85.57,85.6,7610
340,85.5986,85.61,85.59,85.59,3700
341,85.575,85.6,85.57,85.59,5600
342,85.61,85.61,85.55,85.575,5885
343,85.6,85.62,85.6,85.61,500
344,85.61,85.63,85.6,85.6118,1482
345,85.62,85.64,85.59,85.61,4716
346,85.64,85.64,85.61,85.61,1300
347,85.62,85.62,85.6,85.62,2418
348,85.5825,85.63,85.57,85.63,4044
349,85.595,85.6,85.59,85.59,4400
350,85.6,85.62,85.6,85.6,3824
351,85.6,85.61,85.59,85.6,3105
352,85.585,85.6,85.58,85.59,2071
353,85.6,85.6,85.57,85.585,4552
354,85.6,85.6,85.57,85.595,5129
355,85.6,85.6,85.59,85.59,1600
356,85.58,85.6,85.56,85.6,7105
357,85.61,85.62,85.58,85.58,9421
358,85.61,85.61,85.61,85.61,300
359,85.58,85.6,85.58,85.59,3453
360,85.6,85.6,85.58,85.58,4433
361,85.59,85.6,85.57,85.59,16299
362,85.61,85.62,85.59,85.59,3322
363,85.6038,85.61,85.595,85.6,8000
364,85.61,85.6101,85.595,85.61,3100
365,85.61,85.63,85.61,85.61,4900
366,85.619,85.63,85.61,85.615,3385
367,85.61,85.625,85.61,85.62,3055
368,85.59,85.61,85.58,85.61,7263
369,85.581,85.5999,85.581,85.59,5419
370,85.64,85.64,85.59,85.59,6431
371,85.65,85.66,85.6475,85.65,3212
372,85.6787,85.69,85.64,85.65,18043
373,85.69,85.7,85.6701,85.68,7706
374,85.65,85.7,85.65,85.6801,6634
375,85.715,85.73,85.66,85.66,18343
376,85.74,85.74,85.71,85.72,8273
377,85.71,85.735,85.71,85.73,3500
378,85.71,85.72,85.7,85.715,3153
379,85.75,85.77,85.7004,85.72,28700
380,85.73,85.75,85.71,85.75,19295
381,85.71,85.74,85.71,85.72,27221
382,85.715,85.77,85.69,85.71,17877
383,85.74,85.75,85.6625,85.71,15750
384,85.65,85.74,85.64,85.74,10854
385,85.66,85.68,85.64,85.64,10350
386,85.665,85.67,85.6,85.66,30935
387,85.69,85.71,85.64,85.665,36847
388,85.68,85.7,85.67,85.69,11645
389,85.64,85.68,85.64,85.67,18592
390,85.65,85.68,85.61,85.65,46103
