PPG,PPG Industries,Materials,8,Specialty Chemicals,26894647869,1488397
a1504272600,104.8,104.8,104.8,104.8,11049
1,104.72,104.79,104.555,104.555,1400
2,104.77,104.85,104.74,104.74,6687
3,104.81,104.8199,104.72,104.76,6550
4,104.87,104.9,104.8,104.82,3550
5,104.655,104.87,104.655,104.87,1700
6,104.64,104.7407,104.64,104.7407,713
7,104.78,104.78,104.655,104.655,3174
8,104.76,104.83,104.73,104.76,2200
9,104.605,104.71,104.605,104.71,4621
10,104.535,104.58,104.535,104.58,494
11,104.65,104.67,104.51,104.55,5700
12,104.56,104.7,104.56,104.7,600
13,104.635,104.635,104.56,104.56,1200
15,104.46,104.47,104.405,104.47,1020
16,104.58,104.58,104.45,104.46,2400
17,104.5901,104.6,104.55,104.6,2023
19,104.48,104.56,104.46,104.56,1292
20,104.48,104.51,104.4,104.49,4000
21,104.54,104.56,104.535,104.56,400
22,104.52,104.57,104.52,104.56,3032
23,104.49,104.5,104.44,104.47,739
24,104.43,104.47,104.42,104.47,1100
25,104.4,104.44,104.31,104.41,6000
26,104.43,104.48,104.43,104.44,1600
27,104.44,104.44,104.41,104.41,970
28,104.41,104.41,104.41,104.41,100
29,104.38,104.39,104.38,104.38,300
30,104.34,104.38,104.34,104.38,2600
31,104.34,104.34,104.34,104.34,300
32,104.4,104.42,104.345,104.36,4610
33,104.44,104.44,104.4,104.4,3500
34,104.42,104.46,104.42,104.43,3265
35,104.365,104.43,104.36,104.41,11600
36,104.39,104.4,104.37,104.38,1502
37,104.325,104.41,104.325,104.39,3975
38,104.35,104.36,104.32,104.35,4601
39,104.365,104.37,104.335,104.35,3908
40,104.35,104.41,104.35,104.39,7800
41,104.38,104.385,104.36,104.36,5800
42,104.37,104.38,104.36,104.38,3475
43,104.39,104.4,104.37,104.37,3800
44,104.43,104.43,104.38,104.405,5000
45,104.4375,104.44,104.41,104.42,1902
46,104.37,104.44,104.36,104.44,8576
47,104.39,104.42,104.37,104.37,2400
48,104.4,104.41,104.39,104.4,1101
49,104.42,104.42,104.41,104.41,900
50,104.39,104.41,104.39,104.41,1740
51,104.35,104.39,104.35,104.39,4264
52,104.435,104.435,104.35,104.35,2709
53,104.43,104.43,104.43,104.43,100
54,104.34,104.435,104.34,104.435,3300
55,104.36,104.36,104.35,104.35,900
56,104.345,104.4,104.345,104.385,2100
57,104.375,104.375,104.36,104.36,200
58,104.365,104.39,104.3501,104.38,3400
59,104.36,104.36,104.36,104.36,100
60,104.415,104.415,104.36,104.36,3040
61,104.44,104.455,104.4,104.41,2700
62,104.52,104.535,104.44,104.46,3000
63,104.46,104.48,104.46,104.48,500
64,104.47,104.475,104.43,104.43,2700
65,104.4,104.47,104.4,104.45,4232
66,104.39,104.39,104.39,104.39,100
67,104.39,104.39,104.39,104.39,100
68,104.355,104.4,104.355,104.4,6372
69,104.36,104.37,104.355,104.36,2074
70,104.365,104.365,104.34,104.36,2400
71,104.36,104.39,104.36,104.37,2001
72,104.35,104.38,104.33,104.36,5689
74,104.39,104.39,104.35,104.35,1200
75,104.37,104.4,104.37,104.4,2200
76,104.385,104.41,104.36,104.37,4238
78,104.39,104.39,104.39,104.39,200
79,104.42,104.42,104.39,104.39,1900
80,104.4,104.42,104.365,104.4,6199
81,104.35,104.395,104.34,104.39,2976
83,104.36,104.36,104.34,104.35,4200
85,104.39,104.39,104.36,104.36,2400
86,104.39,104.39,104.36,104.38,3300
87,104.4,104.43,104.4,104.42,2100
88,104.415,104.415,104.35,104.39,2600
90,104.39,104.39,104.39,104.39,100
91,104.39,104.41,104.365,104.39,4341
93,104.365,104.38,104.365,104.38,2300
94,104.37,104.37,104.37,104.37,220
95,104.4,104.41,104.37,104.37,2400
96,104.42,104.43,104.38,104.4,3901
97,104.5,104.5,104.5,104.5,200
98,104.49,104.49,104.49,104.49,100
99,104.48,104.48,104.48,104.48,100
100,104.49,104.49,104.455,104.48,4452
101,104.43,104.49,104.43,104.4876,3125
102,104.39,104.425,104.39,104.425,600
103,104.39,104.39,104.38,104.38,500
104,104.37,104.39,104.37,104.38,2900
105,104.36,104.37,104.36,104.37,200
106,104.31,104.36,104.31,104.36,800
107,104.33,104.349,104.31,104.33,2243
108,104.28,104.31,104.26,104.31,600
109,104.2634,104.28,104.24,104.28,788
110,104.235,104.26,104.23,104.255,5488
111,104.2,104.22,104.2,104.22,400
112,104.21,104.21,104.21,104.21,100
113,104.21,104.21,104.17,104.18,3695
114,104.18,104.2,104.17,104.195,600
115,104.19,104.19,104.16,104.16,1000
116,104.1601,104.18,104.16,104.18,1000
117,104.15,104.17,104.15,104.16,3207
118,104.13,104.14,104.115,104.14,1300
119,104.1478,104.15,104.1438,104.15,600
121,104.115,104.15,104.115,104.15,2900
122,104.12,104.13,104.11,104.115,1500
123,104.1,104.1,104.1,104.1,100
124,104.115,104.12,104.11,104.115,2300
125,104.18,104.18,104.13,104.13,1300
126,104.24,104.24,104.185,104.19,630
128,104.235,104.28,104.235,104.27,3050
129,104.23,104.23,104.23,104.23,100
130,104.23,104.23,104.23,104.23,544
131,104.23,104.235,104.225,104.23,2511
132,104.22,104.23,104.22,104.23,300
133,104.29,104.29,104.22,104.22,2500
134,104.345,104.345,104.315,104.315,200
135,104.36,104.36,104.35,104.36,600
136,104.36,104.36,104.34,104.35,1400
137,104.38,104.38,104.38,104.38,100
139,104.35,104.38,104.35,104.38,1600
140,104.35,104.36,104.35,104.36,1000
141,104.3715,104.3715,104.36,104.36,639
142,104.37,104.37,104.34,104.36,2000
143,104.37,104.37,104.37,104.37,100
144,104.385,104.39,104.37,104.37,1282
145,104.39,104.39,104.3625,104.385,3400
146,104.38,104.4,104.38,104.38,1844
147,104.39,104.39,104.39,104.39,200
148,104.4028,104.405,104.4028,104.405,301
150,104.41,104.41,104.39,104.4,2750
151,104.41,104.41,104.41,104.41,1000
152,104.42,104.42,104.42,104.42,400
154,104.43,104.44,104.43,104.44,300
155,104.43,104.43,104.43,104.43,900
156,104.44,104.44,104.435,104.435,1520
157,104.45,104.45,104.44,104.44,700
158,104.43,104.45,104.43,104.45,900
159,104.43,104.43,104.43,104.43,403
160,104.41,104.41,104.41,104.41,180
161,104.42,104.42,104.4,104.4,1200
162,104.44,104.44,104.43,104.43,200
163,104.43,104.435,104.43,104.43,1003
164,104.42,104.42,104.42,104.42,500
165,104.41,104.42,104.41,104.41,700
166,104.39,104.41,104.39,104.41,400
167,104.37,104.41,104.36,104.4,3752
168,104.375,104.375,104.37,104.37,700
169,104.35,104.3747,104.34,104.37,2230
170,104.35,104.36,104.34,104.35,4116
171,104.36,104.365,104.36,104.365,1500
172,104.35,104.37,104.35,104.37,2201
173,104.36,104.36,104.35,104.35,1559
174,104.34,104.36,104.34,104.36,300
175,104.355,104.355,104.355,104.355,1500
176,104.36,104.36,104.34,104.35,2600
177,104.36,104.36,104.35,104.36,946
178,104.36,104.3656,104.36,104.36,1778
179,104.365,104.37,104.35,104.35,3710
180,104.37,104.37,104.35,104.36,1300
181,104.38,104.39,104.38,104.38,700
182,104.38,104.38,104.37,104.38,700
183,104.37,104.38,104.37,104.38,1300
184,104.37,104.3714,104.37,104.37,820
185,104.38,104.38,104.36,104.37,858
186,104.375,104.38,104.37,104.38,1500
187,104.37,104.3701,104.37,104.3701,856
188,104.36,104.365,104.35,104.365,400
189,104.369,104.369,104.36,104.36,250
190,104.35,104.3572,104.35,104.3572,265
191,104.36,104.368,104.36,104.368,700
192,104.35,104.36,104.35,104.36,300
193,104.34,104.34,104.34,104.34,300
194,104.36,104.36,104.34,104.34,1278
195,104.35,104.35,104.35,104.35,100
196,104.365,104.37,104.35,104.35,2285
197,104.365,104.365,104.365,104.365,200
198,104.42,104.42,104.37,104.37,2528
199,104.385,104.41,104.37,104.41,1800
201,104.355,104.38,104.35,104.38,1000
202,104.37,104.37,104.37,104.37,800
204,104.38,104.38,104.38,104.38,900
206,104.4,104.41,104.38,104.38,1647
207,104.38,104.39,104.38,104.39,200
208,104.38,104.3998,104.38,104.38,300
209,104.45,104.45,104.3775,104.38,1200
210,104.43,104.45,104.43,104.45,200
211,104.445,104.445,104.43,104.43,200
212,104.44,104.44,104.42,104.44,1372
213,104.4675,104.48,104.44,104.44,900
214,104.48,104.5,104.47,104.47,600
215,104.46,104.47,104.46,104.46,500
216,104.46,104.46,104.45,104.46,852
217,104.48,104.48,104.48,104.48,600
218,104.46,104.47,104.46,104.47,900
219,104.45,104.45,104.45,104.45,707
220,104.48,104.4816,104.47,104.47,450
221,104.5015,104.5015,104.48,104.48,600
222,104.49,104.49,104.49,104.49,700
223,104.49,104.49,104.49,104.49,200
224,104.5092,104.5092,104.49,104.49,1213
225,104.5,104.5,104.5,104.5,100
226,104.5,104.51,104.5,104.5,700
227,104.535,104.535,104.5,104.5,1263
229,104.56,104.56,104.56,104.56,500
230,104.56,104.57,104.56,104.57,600
231,104.56,104.57,104.56,104.56,600
232,104.53,104.55,104.53,104.55,1600
233,104.55,104.56,104.53,104.53,2600
234,104.57,104.57,104.56,104.56,500
236,104.585,104.585,104.5796,104.5796,615
237,104.6032,104.6032,104.59,104.5934,772
238,104.6143,104.6143,104.61,104.61,900
239,104.62,104.64,104.62,104.62,2600
240,104.62,104.62,104.62,104.62,400
241,104.66,104.66,104.63,104.63,1423
242,104.67,104.67,104.65,104.66,1200
243,104.73,104.73,104.68,104.68,1375
244,104.73,104.73,104.73,104.73,200
245,104.74,104.74,104.73,104.74,700
246,104.745,104.745,104.745,104.745,700
247,104.78,104.78,104.75,104.75,600
248,104.77,104.79,104.77,104.79,2918
249,104.755,104.78,104.75,104.78,1072
250,104.755,104.76,104.755,104.76,200
251,104.735,104.755,104.73,104.755,2207
252,104.75,104.75,104.73,104.73,1100
253,104.74,104.745,104.73,104.745,1800
254,104.72,104.75,104.72,104.74,3300
255,104.76,104.76,104.7372,104.7372,450
256,104.73,104.75,104.73,104.75,5500
257,104.79,104.79,104.725,104.725,11871
258,104.83,104.92,104.79,104.8,10800
259,104.82,104.83,104.82,104.83,200
260,104.85,104.85,104.81,104.81,1400
261,104.86,104.87,104.85,104.85,1545
262,104.84,104.86,104.84,104.86,1400
264,104.84,104.84,104.82,104.84,1200
265,104.82,104.85,104.82,104.84,3700
266,104.81,104.81,104.81,104.81,300
267,104.84,104.84,104.81,104.81,200
268,104.82,104.83,104.82,104.83,534
269,104.8036,104.82,104.8036,104.82,451
270,104.81,104.81,104.795,104.795,1134
271,104.78,104.81,104.76,104.81,1604
272,104.77,104.7738,104.77,104.7738,400
273,104.775,104.78,104.75,104.76,1491
274,104.78,104.79,104.78,104.79,566
275,104.82,104.82,104.82,104.82,100
276,104.8,104.82,104.8,104.805,1498
278,104.8,104.8,104.8,104.8,100
279,104.79,104.81,104.79,104.8,1500
281,104.805,104.81,104.805,104.81,300
282,104.77,104.8,104.77,104.8,1500
283,104.74,104.7811,104.74,104.7811,2408
284,104.75,104.77,104.74,104.77,300
285,104.73,104.77,104.73,104.77,413
286,104.73,104.754,104.73,104.7301,538
287,104.69,104.73,104.67,104.73,2800
288,104.6988,104.71,104.68,104.69,1857
289,104.62,104.7,104.61,104.7,2911
290,104.61,104.64,104.61,104.63,1498
291,104.63,104.63,104.61,104.63,1600
292,104.59,104.64,104.59,104.64,1000
293,104.61,104.61,104.59,104.6,1000
294,104.615,104.6204,104.615,104.6204,523
295,104.63,104.63,104.62,104.63,1250
296,104.61,104.63,104.61,104.63,802
297,104.63,104.63,104.63,104.63,100
298,104.52,104.63,104.47,104.63,13315
299,104.48,104.55,104.47,104.55,7090
300,104.46,104.5084,104.39,104.48,6523
301,104.485,104.52,104.47,104.48,2318
302,104.57,104.6,104.49,104.49,8030
303,104.605,104.605,104.59,104.59,200
304,104.61,104.61,104.59,104.59,223
305,104.59,104.6,104.58,104.6,1100
306,104.59,104.61,104.585,104.5944,2176
307,104.61,104.61,104.59,104.59,736
308,104.62,104.62,104.615,104.615,400
309,104.62,104.62,104.62,104.62,400
310,104.6,104.62,104.6,104.62,1400
311,104.61,104.63,104.6,104.6,1300
312,104.58,104.58,104.58,104.58,100
313,104.56,104.56,104.55,104.56,900
314,104.55,104.55,104.525,104.55,2500
315,104.56,104.56,104.56,104.56,100
316,104.5601,104.565,104.56,104.56,800
317,104.565,104.57,104.565,104.57,400
318,104.55,104.56,104.54,104.56,3200
319,104.535,104.56,104.535,104.555,3200
320,104.54,104.545,104.53,104.535,900
321,104.64,104.64,104.545,104.5475,2125
322,104.65,104.68,104.65,104.65,1000
324,104.675,104.68,104.62,104.64,2483
326,104.665,104.67,104.66,104.67,1484
327,104.69,104.69,104.67,104.67,1079
328,104.72,104.72,104.69,104.7,2000
330,104.72,104.73,104.71,104.73,1400
331,104.77,104.77,104.7597,104.7597,560
332,104.77,104.78,104.75,104.78,1848
333,104.75,104.7932,104.75,104.7895,1905
334,104.78,104.78,104.7571,104.76,757
335,104.76,104.7801,104.76,104.7801,1129
336,104.77,104.78,104.755,104.76,900
337,104.76,104.77,104.76,104.77,501
338,104.7742,104.78,104.77,104.78,910
339,104.77,104.775,104.75,104.77,2000
341,104.785,104.8,104.78,104.78,2189
342,104.78,104.79,104.78,104.785,1500
343,104.77,104.78,104.77,104.77,500
344,104.8,104.81,104.775,104.775,2500
345,104.8057,104.81,104.79,104.79,508
346,104.81,104.82,104.805,104.81,1700
347,104.835,104.84,104.81,104.81,1300
348,104.83,104.83,104.83,104.83,200
349,104.82,104.82,104.805,104.82,1430
350,104.835,104.8497,104.835,104.8497,400
351,104.82,104.85,104.81,104.85,1405
352,104.822,104.83,104.815,104.815,948
353,104.83,104.85,104.825,104.83,1632
354,104.84,104.84,104.8292,104.8292,1107
355,104.83,104.83,104.83,104.83,300
356,104.8299,104.84,104.8299,104.835,1400
357,104.82,104.84,104.8,104.83,3500
358,104.82,104.82,104.82,104.82,200
359,104.83,104.83,104.815,104.82,1091
360,104.84,104.85,104.84,104.84,800
361,104.77,104.84,104.77,104.84,3749
362,104.77,104.79,104.76,104.7792,9140
363,104.76,104.76,104.75,104.75,1300
364,104.76,104.7683,104.76,104.76,500
365,104.75,104.765,104.74,104.765,1546
366,104.7602,104.77,104.75,104.75,2456
367,104.765,104.767,104.76,104.76,2168
368,104.75,104.755,104.75,104.755,800
369,104.755,104.76,104.75,104.75,600
370,104.75,104.7564,104.75,104.755,1850
371,104.755,104.755,104.75,104.755,700
372,104.6803,104.755,104.68,104.75,4817
373,104.69,104.695,104.68,104.68,3436
374,104.66,104.6982,104.66,104.6982,2381
375,104.64,104.67,104.64,104.665,4681
376,104.59,104.6301,104.56,104.6301,6798
377,104.63,104.635,104.595,104.6,5639
378,104.64,104.64,104.63,104.64,1100
379,104.635,104.64,104.6,104.635,4741
380,104.645,104.65,104.63,104.63,4144
381,104.6601,104.665,104.64,104.64,4779
382,104.66,104.68,104.65,104.665,8372
383,104.7,104.7,104.66,104.66,4619
384,104.645,104.7,104.64,104.695,5428
385,104.64,104.65,104.61,104.645,6666
386,104.69,104.69,104.64,104.64,9020
387,104.68,104.69,104.67,104.68,2300
388,104.66,104.68,104.66,104.67,7707
389,104.62,104.67,104.61,104.67,6089
390,104.58,104.625,104.57,104.61,19827
