PPG,PPG Industries,Materials,8,Specialty Chemicals,27948802051,1319392
a1494250200,109.05,109.75,109.05,109.75,13672
1,109.12,109.56,109.06,109.56,400
2,109.44,109.48,109.18,109.18,965
3,109.71,109.87,109.5894,109.5894,3901
4,109.73,109.77,109.66,109.77,2186
5,109.87,109.87,109.83,109.83,400
6,109.68,109.95,109.65,109.84,4978
7,109.64,109.69,109.6255,109.67,1000
8,109.615,109.79,109.55,109.79,2500
9,109.32,109.61,109.31,109.55,2256
10,109.35,109.35,109.32,109.32,300
11,109.37,109.3925,109.3,109.37,5529
12,109.2975,109.42,109.23,109.335,3300
13,109.46,109.46,109.13,109.33,6663
14,109.37,109.37,109.225,109.3625,1568
15,109.275,109.43,109.21,109.33,2105
16,109.27,109.33,109.22,109.28,2612
17,109.24,109.27,109.16,109.24,5045
18,109.23,109.245,109.16,109.225,2300
20,109.24,109.245,109.24,109.245,300
21,109.265,109.28,109.2,109.24,4360
23,109.28,109.305,109.24,109.265,2800
24,109.205,109.29,109.175,109.275,3300
25,109.0775,109.2,109.0775,109.18,6390
26,109.045,109.11,109.04,109.1,4400
27,109.05,109.07,108.9775,109.04,11616
28,109.06,109.08,109.035,109.05,7072
29,109.105,109.12,109.085,109.09,4250
30,109.05,109.08,109.04,109.08,3773
31,109.095,109.16,109.05,109.05,2400
32,109.07,109.14,109.07,109.14,1100
33,109.11,109.12,109.04,109.05,9900
34,109.04,109.09,109.04,109.09,1701
35,109.08,109.08,109.045,109.05,4163
36,109.065,109.085,109.01,109.07,7520
37,109.06,109.0721,109.06,109.0721,2123
38,109.11,109.11,109.07,109.07,2000
39,109.03,109.11,109.0175,109.11,4697
40,108.98,109.025,108.98,109.02,4249
41,108.84,108.98,108.84,108.98,3546
42,108.885,108.89,108.83,108.85,4290
43,108.84,108.91,108.84,108.9,3069
44,108.83,108.86,108.79,108.83,4100
45,108.84,108.84,108.82,108.83,1400
46,108.84,108.86,108.8378,108.85,1915
47,108.81,108.845,108.8,108.845,4227
48,108.81,108.81,108.81,108.81,400
49,108.84,108.85,108.81,108.81,3037
50,108.92,108.93,108.84,108.84,4000
51,108.91,108.91,108.91,108.91,300
52,108.87,108.935,108.87,108.91,1400
53,108.89,108.91,108.87,108.91,970
54,108.885,108.885,108.86,108.87,2000
55,108.94,108.95,108.89,108.9,1800
56,109.04,109.06,108.97,108.97,2200
57,109.08,109.08,109.08,109.08,100
58,109.04,109.1,109.04,109.075,700
59,109.01,109.075,109,109.075,5075
60,108.9,108.98,108.9,108.98,1540
61,108.92,108.92,108.87,108.89,1812
62,108.9,108.92,108.9,108.92,1200
63,108.89,108.91,108.89,108.9,900
64,108.94,108.95,108.92,108.92,1100
65,108.97,109.005,108.96,108.96,1570
66,108.97,108.98,108.97,108.98,1400
67,108.94,108.96,108.94,108.96,600
68,108.96,108.96,108.95,108.96,700
69,109.03,109.03,108.97,108.97,1100
70,109.04,109.07,109,109,1200
71,109.05,109.05,109.05,109.05,100
72,109.055,109.07,109.04,109.04,400
73,109.14,109.14,109.06,109.06,2330
74,109.14,109.14,109.12,109.12,361
75,109.1666,109.17,109.12,109.15,3070
76,109.15,109.15,109.13,109.13,898
78,109.13,109.15,109.12,109.14,2327
79,109.07,109.11,109.07,109.11,1300
80,109.04,109.065,109.035,109.06,2200
81,109.03,109.06,109.01,109.04,2300
82,109.01,109.04,109.01,109.04,600
83,108.99,109.02,108.99,109.01,1850
84,108.97,108.98,108.96,108.98,1540
85,108.955,108.97,108.95,108.97,2800
86,108.94,108.95,108.92,108.95,1731
87,108.98,108.98,108.96,108.96,1100
88,108.94,108.95,108.925,108.95,1200
89,108.95,108.95,108.91,108.93,2125
90,108.95,108.95,108.92,108.93,9323
91,108.94,108.95,108.94,108.95,300
92,109,109,108.93,108.93,10201
93,108.978,108.978,108.978,108.978,100
94,108.97,108.97,108.97,108.97,400
95,108.99,109.02,108.98,108.98,2721
96,109,109,109,109,300
97,109.03,109.03,109.01,109.01,1200
98,109.04,109.05,109.03,109.03,1300
99,109.105,109.105,109.04,109.04,3900
100,109.095,109.13,109.09,109.1,1975
101,109.02,109.0801,109.02,109.0801,4525
102,109.09,109.09,109.015,109.02,2701
103,109.09,109.09,109.09,109.09,100
104,109.07,109.1,109.07,109.086,1550
105,109.04,109.06,109.04,109.06,2542
106,109.02,109.03,109.01,109.03,2800
107,109.025,109.03,109.025,109.025,2475
108,109,109.04,109,109.03,2300
109,109.01,109.03,108.99,109.01,3394
110,109.03,109.04,109.02,109.02,1000
111,109.01,109.02,109,109.02,1200
112,109.05,109.07,109.02,109.02,2400
113,109.01,109.05,109.01,109.05,2800
114,109.035,109.035,109.01,109.01,1500
115,108.9904,109.03,108.99,109.03,512
116,108.955,109,108.95,108.98,2800
117,108.98,108.98,108.95,108.97,1319
118,108.94,108.95,108.92,108.95,4501
119,108.9746,108.98,108.94,108.94,2100
120,108.96,108.96,108.94,108.94,900
121,109,109.01,108.98,108.98,2100
122,109.04,109.04,109.01,109.01,700
123,109.06,109.06,109.04,109.04,400
124,109.15,109.15,109.07,109.07,1202
125,109.13,109.15,109.13,109.15,200
126,109.135,109.135,109.135,109.135,100
127,109.15,109.15,109.135,109.15,400
128,109.18,109.18,109.14,109.15,1600
129,109.23,109.26,109.22,109.26,1653
130,109.3,109.3,109.26,109.26,900
131,109.27,109.29,109.26,109.27,3816
132,109.25,109.274,109.25,109.274,625
133,109.24,109.25,109.24,109.24,600
134,109.27,109.28,109.26,109.26,1070
135,109.285,109.285,109.285,109.285,300
136,109.24,109.285,109.23,109.285,6093
137,109.26,109.26,109.26,109.26,100
138,109.24,109.26,109.23,109.26,900
139,109.21,109.24,109.21,109.24,2300
140,109.16,109.21,109.16,109.21,3100
141,109.22,109.22,109.16,109.16,1014
142,109.19,109.2,109.19,109.19,700
143,109.14,109.18,109.14,109.18,1900
144,109.1,109.15,109.1,109.14,897
145,109.09,109.09,109.09,109.09,300
146,109.04,109.09,109.02,109.09,3228
147,109.16,109.16,109.08,109.08,2200
148,109.165,109.165,109.165,109.165,100
149,109.18,109.18,109.16,109.165,1431
150,109.14,109.16,109.13,109.15,3300
151,109.135,109.14,109.11,109.13,1787
152,109.13,109.15,109.11,109.11,1200
153,109.15,109.15,109.15,109.15,200
154,109.11,109.14,109.11,109.14,1400
155,109.1,109.11,109.1,109.11,500
156,109.11,109.12,109.08,109.1,2351
157,109.11,109.13,109.1,109.11,1200
158,109.1,109.12,109.1,109.12,600
159,109.08,109.1,109.07,109.09,1900
160,109.11,109.11,109.08,109.08,569
161,109.11,109.11,109.095,109.095,300
162,109.08,109.11,109.08,109.1,3500
163,109.05,109.08,109.05,109.07,1520
164,109.09,109.1,109.0512,109.0512,2868
165,109.09,109.11,109.09,109.1,400
166,109.11,109.11,109.1099,109.1099,293
167,109.07,109.1,109.07,109.1,1203
169,109.11,109.11,109.06,109.06,4702
170,109.09,109.13,109.09,109.13,2300
171,109.1,109.1,109.08,109.08,1544
172,109.11,109.11,109.0901,109.0901,200
173,109.1,109.11,109.09,109.09,2300
174,109.04,109.1,109.04,109.1,2600
175,109.04,109.04,109.02,109.03,959
176,109.055,109.055,109.03,109.03,2042
177,109.04,109.06,109.04,109.06,2446
179,109.03,109.04,109.02,109.03,2412
180,109.01,109.03,109,109.03,1810
181,109.02,109.04,109.02,109.03,300
182,109.06,109.13,109.03,109.03,7759
183,109.065,109.08,109.06,109.06,2100
184,109,109.02,109,109.02,591
185,109.065,109.065,108.995,108.995,1600
186,109.04,109.065,109.04,109.05,1118
187,109.03,109.095,109.02,109.04,4006
188,109.08,109.08,109.02,109.02,1700
189,109.07,109.095,109.03,109.095,4409
190,109.125,109.13,109.065,109.065,1000
191,109.07,109.09,109.06,109.09,1725
192,109.06,109.1,109.05,109.07,4458
193,109.04,109.075,109.03,109.05,4849
194,109.04,109.045,109,109.045,8437
195,109.0338,109.0338,109.0338,109.0338,1118
196,109.0438,109.0438,109.03,109.04,1200
197,109.03,109.04,109,109.03,2523
198,109.03,109.03,109.03,109.03,100
199,108.99,109.03,108.99,109.03,1373
200,109.0003,109.0003,109.0003,109.0003,100
201,108.9875,108.9875,108.98,108.98,1432
203,109,109.01,109,109.01,1700
204,108.95,109.01,108.95,109.01,1800
205,108.95,108.96,108.95,108.95,1100
207,108.95,109.0099,108.95,109.0099,200
209,108.96,108.96,108.96,108.96,100
210,108.99,108.99,108.96,108.96,1100
212,108.8201,108.98,108.8201,108.98,16222
213,108.62,108.83,108.62,108.83,59908
214,108.69,108.7,108.61,108.61,3000
215,108.73,108.76,108.71,108.71,2100
216,108.72,108.72,108.69,108.71,500
217,108.79,108.79,108.71,108.73,2500
218,108.8,108.8,108.76,108.76,200
219,108.73,108.81,108.7,108.8,3210
220,108.66,108.725,108.63,108.715,4650
221,108.7,108.7,108.66,108.66,500
222,108.56,108.67,108.55,108.67,5222
223,108.56,108.6,108.56,108.6,632
224,108.5701,108.58,108.57,108.58,500
225,108.59,108.59,108.59,108.59,200
226,108.57,108.59,108.47,108.58,12081
227,108.57,108.6,108.57,108.57,1000
228,108.59,108.59,108.57,108.57,700
231,108.57,108.5836,108.56,108.5836,1800
232,108.55,108.55,108.55,108.55,100
234,108.58,108.58,108.58,108.58,100
235,108.57,108.5702,108.57,108.5702,200
236,108.67,108.67,108.57,108.57,4648
237,108.665,108.69,108.665,108.68,300
238,108.69,108.69,108.66,108.69,800
240,108.73,108.73,108.68,108.68,1125
241,108.71,108.72,108.7,108.72,1300
242,108.73,108.73,108.71,108.71,500
243,108.735,108.75,108.735,108.75,300
244,108.71,108.74,108.71,108.74,1180
246,108.75,108.75,108.715,108.73,1000
247,108.8,108.8,108.76,108.76,200
248,108.74,108.8,108.74,108.79,1900
249,108.75,108.755,108.74,108.755,1400
250,108.79,108.79,108.74,108.74,900
251,108.76,108.77,108.75,108.77,1897
252,108.77,108.77,108.77,108.77,700
253,108.765,108.765,108.76,108.76,200
254,108.78,108.78,108.765,108.765,700
255,108.765,108.765,108.765,108.765,200
256,108.74,108.765,108.74,108.765,1838
257,108.74,108.7433,108.74,108.7433,400
258,108.74,108.74,108.74,108.74,300
259,108.775,108.775,108.73,108.73,2495
260,108.74,108.77,108.74,108.76,2100
261,108.75,108.75,108.74,108.74,1000
263,108.78,108.78,108.76,108.76,600
264,108.782,108.782,108.77,108.77,200
265,108.79,108.79,108.79,108.79,100
266,108.77,108.78,108.76,108.78,2500
268,108.76,108.76,108.75,108.75,200
269,108.75,108.75,108.75,108.75,300
270,108.73,108.756,108.73,108.75,1345
271,108.73,108.745,108.72,108.72,984
272,108.72,108.74,108.72,108.72,600
273,108.7,108.7337,108.7,108.72,2707
274,108.7,108.73,108.7,108.72,3510
275,108.7132,108.72,108.71,108.72,1213
276,108.7,108.71,108.7,108.71,1499
277,108.68,108.7,108.67,108.69,4510
278,108.71,108.71,108.69,108.69,1300
279,108.7124,108.7124,108.7124,108.7124,451
280,108.75,108.75,108.72,108.72,1920
281,108.745,108.75,108.744,108.744,900
282,108.74,108.75,108.73,108.75,1700
283,108.72,108.73,108.72,108.72,1100
284,108.74,108.74,108.73,108.73,1023
285,108.7,108.75,108.7,108.74,2448
286,108.7,108.7,108.685,108.69,3193
287,108.68,108.7,108.68,108.7,801
288,108.65,108.663,108.65,108.663,1100
289,108.64,108.64,108.6257,108.63,900
290,108.64,108.65,108.63,108.64,1300
291,108.66,108.66,108.645,108.645,500
292,108.63,108.64,108.63,108.64,1300
293,108.615,108.63,108.61,108.6254,2910
294,108.62,108.62,108.62,108.62,100
295,108.625,108.64,108.62,108.62,1442
296,108.6287,108.6287,108.6287,108.6287,111
297,108.595,108.64,108.595,108.64,2549
298,108.53,108.6,108.53,108.6,6795
299,108.53,108.55,108.51,108.53,4547
300,108.52,108.56,108.52,108.54,500
301,108.53,108.54,108.53,108.54,200
302,108.57,108.57,108.53,108.55,4211
303,108.57,108.57,108.57,108.57,200
304,108.58,108.58,108.57,108.57,505
305,108.59,108.6,108.57,108.59,813
306,108.59,108.59,108.58,108.59,700
307,108.61,108.61,108.59,108.59,1600
308,108.58,108.62,108.57,108.62,2800
309,108.6,108.6,108.585,108.585,600
310,108.58,108.6,108.58,108.6,800
311,108.56,108.57,108.56,108.57,1100
312,108.56,108.56,108.54,108.55,6564
313,108.55,108.56,108.53,108.56,3848
314,108.54,108.55,108.54,108.55,1700
315,108.56,108.57,108.53,108.55,1543
316,108.56,108.565,108.56,108.56,1582
317,108.54,108.555,108.54,108.555,1400
318,108.57,108.57,108.54,108.54,1651
319,108.55,108.56,108.55,108.56,1300
320,108.525,108.55,108.525,108.55,12033
321,108.53,108.54,108.52,108.53,4345
322,108.54,108.54,108.52,108.52,400
323,108.56,108.56,108.5386,108.5386,1387
324,108.57,108.58,108.57,108.58,700
325,108.56,108.56,108.56,108.56,100
326,108.525,108.56,108.525,108.56,3196
327,108.5,108.53,108.495,108.53,2595
328,108.5,108.51,108.5,108.5,1433
329,108.5,108.51,108.49,108.5,2400
330,108.51,108.51,108.505,108.51,500
331,108.47,108.51,108.47,108.51,2700
332,108.41,108.46,108.4,108.46,27453
333,108.4577,108.46,108.425,108.425,1474
334,108.41,108.46,108.41,108.46,1300
335,108.43,108.44,108.42,108.425,3433
336,108.43,108.43,108.42,108.42,540
337,108.44,108.44,108.43,108.43,2216
338,108.41,108.44,108.41,108.43,5133
339,108.4,108.41,108.39,108.41,2243
340,108.36,108.4,108.3475,108.38,3992
341,108.37,108.37,108.355,108.36,2577
342,108.39,108.39,108.36,108.37,3643
343,108.36,108.38,108.35,108.38,1758
344,108.36,108.39,108.34,108.37,2887
345,108.35,108.37,108.35,108.36,1970
346,108.37,108.37,108.36,108.36,1200
347,108.39,108.39,108.38,108.38,1217
348,108.36,108.38,108.36,108.38,1904
349,108.345,108.36,108.345,108.35,1500
350,108.335,108.35,108.335,108.3443,2674
351,108.3,108.33,108.3,108.33,4283
352,108.28,108.3,108.28,108.3,958
353,108.28,108.28,108.24,108.27,2683
354,108.265,108.27,108.26,108.27,1000
355,108.23,108.26,108.23,108.26,4212
356,108.24,108.25,108.23,108.23,1420
357,108.29,108.29,108.25,108.25,4382
358,108.31,108.31,108.29,108.29,900
359,108.31,108.31,108.31,108.31,700
360,108.33,108.34,108.3,108.305,6198
361,108.33,108.35,108.325,108.325,6563
362,108.313,108.33,108.31,108.33,2223
363,108.3,108.315,108.295,108.315,2076
364,108.28,108.3,108.28,108.29,2036
365,108.22,108.28,108.22,108.28,6451
366,108.24,108.24,108.215,108.23,3388
367,108.21,108.23,108.21,108.23,1600
368,108.17,108.21,108.17,108.21,3715
369,108.21,108.21,108.16,108.18,9161
370,108.25,108.25,108.2,108.2,4974
371,108.25,108.26,108.24,108.25,3327
372,108.26,108.26,108.25,108.26,1900
373,108.24,108.255,108.24,108.25,3060
374,108.23,108.25,108.23,108.245,2398
375,108.26,108.27,108.215,108.23,17150
376,108.25,108.27,108.24,108.27,5493
377,108.27,108.27,108.26,108.26,4739
378,108.3,108.31,108.265,108.265,4650
379,108.33,108.33,108.305,108.31,4437
380,108.325,108.33,108.325,108.33,1920
381,108.34,108.35,108.32,108.33,6096
382,108.37,108.37,108.34,108.34,2250
383,108.37,108.37,108.355,108.365,5650
384,108.35,108.38,108.35,108.37,8730
385,108.36,108.37,108.35,108.36,6094
386,108.38,108.38,108.35,108.36,9883
387,108.41,108.41,108.37,108.38,8787
388,108.42,108.42,108.395,108.41,10327
389,108.42,108.42,108.39,108.41,9754
390,108.4,108.42,108.365,108.42,24304
