EOG,EOG Resources,Energy,3,Oil & Gas Exploration & Production,50645938853,2983090
a1493991000,89.03,89.03,89.03,89.03,25587
1,89.04,89.185,88.87,88.9,5693
2,89.15,89.15,88.9001,89.01,17405
3,88.96,89.4,88.95,89.14,9175
4,88.98,89.09,88.87,88.8867,5933
5,89.1598,89.23,88.9,88.945,8330
6,89.18,89.22,88.99,89.19,14746
7,89.07,89.22,89.07,89.21,12053
8,89.07,89.13,88.95,89.106,7167
9,89.09,89.12,88.96,88.96,2204
10,89.13,89.2215,89.12,89.15,7261
11,89.2,89.2248,89.09,89.135,8335
12,89.365,89.4,89.195,89.195,13418
13,89.44,89.55,89.34,89.34,11809
14,89.55,89.55,89.46,89.46,9888
15,89.43,89.6,89.43,89.56,8942
16,89.68,89.73,89.36,89.41,27847
17,89.73,89.79,89.63,89.67,11639
18,89.59,89.71,89.56,89.7,8768
19,89.75,89.75,89.5891,89.5891,19836
20,89.7,89.77,89.7,89.75,21340
21,89.6,89.71,89.58,89.69,9903
22,89.67,89.69,89.595,89.595,14571
23,89.68,89.71,89.6,89.71,5787
24,89.805,89.81,89.69,89.71,14577
25,89.81,89.85,89.74,89.82,7132
26,89.71,89.85,89.7,89.8212,9075
27,89.62,89.7,89.57,89.7,35857
28,89.53,89.625,89.49,89.625,43749
29,89.6,89.6,89.53,89.53,3500
30,89.63,89.63,89.57,89.59,7434
31,89.595,89.63,89.58,89.63,4624
32,89.775,89.85,89.63,89.63,20259
33,89.86,89.86,89.76,89.78,12647
34,89.85,89.94,89.82,89.88,10891
35,89.99,90,89.85,89.85,10915
36,89.94,90,89.93,89.97,11901
37,89.92,89.95,89.9,89.93,13448
38,89.93,89.97,89.92,89.96,29347
39,89.99,90.07,89.93,89.93,6578
40,90.15,90.15,89.99,89.99,9548
41,90.3,90.36,90.14,90.14,26972
42,90.37,90.4,90.3,90.3,16894
43,90.56,90.56,90.34,90.38,23758
44,90.44,90.55,90.43,90.55,4412
45,90.44,90.49,90.4,90.42,5694
46,90.39,90.45,90.356,90.43,20174
47,90.39,90.42,90.34,90.405,6140
48,90.21,90.375,90.19,90.375,4435
49,90.26,90.26,90.13,90.17,3800
50,90.15,90.27,90.15,90.23,6370
51,90.23,90.23,90.11,90.12,4673
52,90.285,90.285,90.2,90.2,4700
53,90.26,90.31,90.22,90.305,4411
54,90.19,90.24,90.18,90.23,1500
55,90.135,90.19,90.1,90.19,6679
56,90.085,90.14,90.06,90.12,9662
57,90.09,90.14,90.06,90.1,6200
58,90.16,90.18,90.09,90.09,2350
59,90.24,90.26,90.18,90.18,11854
60,90.37,90.37,90.24,90.24,11246
61,90.37,90.39,90.34,90.34,5234
62,90.43,90.48,90.37,90.38,11946
63,90.55,90.58,90.42,90.42,21071
64,90.4,90.577,90.39,90.55,11921
65,90.35,90.37,90.3,90.356,7020
66,90.4,90.4,90.3,90.34,12847
67,90.46,90.48,90.41,90.41,5428
68,90.38,90.49,90.37,90.45,4350
69,90.41,90.48,90.32,90.35,7349
70,90.6,90.6,90.41,90.43,11428
71,90.536,90.61,90.5348,90.61,2947
72,90.63,90.7,90.55,90.58,10600
73,90.58,90.58,90.485,90.58,3800
74,90.59,90.62,90.5,90.6,10032
75,90.56,90.63,90.49,90.62,9900
76,90.58,90.59,90.47,90.58,5650
77,90.64,90.64,90.55,90.58,16776
78,90.68,90.73,90.64,90.64,7637
79,90.52,90.66,90.52,90.66,10815
80,90.49,90.62,90.49,90.54,7400
81,90.514,90.56,90.49,90.49,8062
82,90.49,90.56,90.48,90.55,6804
83,90.48,90.5,90.46,90.49,7195
84,90.55,90.57,90.46,90.5,31986
85,90.61,90.63,90.4,90.51,11058
86,90.45,90.6,90.41,90.6,9575
87,90.48,90.59,90.44,90.46,8250
88,90.485,90.54,90.38,90.5,18517
89,90.44,90.45,90.38,90.445,5040
90,90.41,90.48,90.41,90.41,6433
91,90.39,90.48,90.33,90.47,15118
92,90.39,90.45,90.34,90.41,29963
93,90.395,90.42,90.3,90.39,8061
94,90.37,90.4275,90.34,90.4275,1550
95,90.3,90.36,90.29,90.355,19500
96,90.28,90.37,90.28,90.33,16422
97,90.2,90.31,90.2,90.3,9475
98,90.23,90.26,90.19,90.2,28610
99,90.275,90.28,90.2,90.2,15030
100,90.19,90.28,90.19,90.28,11151
101,90.1,90.21,90.1,90.16,17900
102,90.04,90.12,90.02,90.1,21806
103,90.0668,90.1,90,90.04,15521
104,90.18,90.23,90.07,90.09,12735
105,90.23,90.24,90.15,90.2001,13676
106,90.31,90.36,90.25,90.25,17697
107,90.3,90.33,90.22,90.31,8100
108,90.3,90.36,90.27,90.28,11806
109,90.44,90.44,90.26,90.28,8094
110,90.255,90.44,90.22,90.44,21115
111,90.265,90.36,90.23,90.28,10044
112,90.21,90.29,90.2,90.2637,16006
113,90.2,90.25,90.18,90.215,19731
114,90.225,90.24,90.19,90.2,9749
115,90.1,90.24,90.08,90.23,27723
116,90.34,90.39,90.1,90.1,10484
117,90.11,90.34,90.1,90.34,9540
118,90.13,90.15,90,90.1,5829
119,90.08,90.121,90,90.121,6270
120,90.09,90.09,90,90.08,5942
121,90.12,90.16,90.02,90.08,4850
122,90.16,90.21,90.09,90.13,2200
123,90.21,90.23,90.14,90.19,3506
124,90.24,90.3,90.18,90.24,7680
125,90.23,90.29,90.12,90.28,7039
126,90.27,90.29,90.23,90.2348,2000
127,90.13,90.26,90.07,90.26,9280
128,90.2,90.2,90.01,90.12,3400
129,90.09,90.175,90,90.175,7651
130,90.05,90.07,90,90.065,6300
131,90,90.18,90,90.07,4414
132,90.08,90.16,90.03,90.05,3598
133,90.21,90.24,90.04,90.04,4680
134,90.24,90.27,90.2,90.2,5600
135,90.27,90.27,90.2,90.25,3903
136,90.25,90.34,90.25,90.31,2400
137,90.21,90.34,90.21,90.28,4900
138,90.23,90.27,90.2,90.215,52200
139,90.27,90.31,90.23,90.23,4793
140,90.29,90.3,90.23,90.27,4300
141,90.225,90.285,90.2,90.28,2600
142,90.21,90.25,90.17,90.2,13581
143,90.165,90.23,90.13,90.22,6853
144,90.03,90.165,90.03,90.14,6665
145,89.95,90.04,89.8,90.04,6956
146,89.9,89.99,89.89,89.98,3201
147,89.9,90.01,89.83,89.955,9333
148,89.91,89.93,89.83,89.88,2700
149,89.67,89.9,89.67,89.9,8562
150,89.775,89.82,89.7,89.715,6075
151,89.81,89.96,89.69,89.75,9121
152,89.91,89.91,89.78,89.85,2011
153,89.8,89.94,89.75,89.92,7817
154,89.79,89.79,89.61,89.775,15658
155,89.92,89.92,89.79,89.8,3065
156,89.77,89.935,89.72,89.92,11450
157,89.79,89.83,89.7,89.8,4540
158,89.8428,89.8428,89.8,89.8,400
159,89.88,89.88,89.8401,89.86,1415
160,89.95,90,89.88,89.88,3905
161,89.94,89.98,89.91,89.93,3098
162,89.88,90,89.8,89.95,6099
163,89.74,89.8797,89.74,89.8797,9747
164,89.7,89.84,89.7,89.84,5578
165,89.71,89.77,89.7,89.77,8967
166,89.75,89.78,89.75,89.76,2570
167,89.87,89.89,89.78,89.78,4900
168,89.845,89.86,89.84,89.86,800
169,89.87,89.87,89.83,89.839,2958
170,89.96,89.96,89.88,89.88,2000
171,90.04,90.04,89.95,89.95,3069
172,90.06,90.09,90.06,90.06,1400
173,89.98,90.06,89.98,90.05,800
174,89.94,89.96,89.94,89.96,900
175,90.04,90.07,89.92,89.92,4122
176,90.0515,90.0515,89.99,90.02,2000
177,90.07,90.07,90.025,90.025,535
178,90.07,90.07,90.02,90.0565,753
179,90.0456,90.07,90.01,90.07,2130
180,90.004,90.05,90.004,90.03,2800
181,90.06,90.09,90,90.03,6918
182,90.05,90.05,90,90.02,722
183,90.04,90.1,90.04,90.07,2678
184,90.16,90.16,90,90,2362
185,90.1,90.15,90.1,90.15,2248
186,90.07,90.09,90.04,90.09,946
187,90.08,90.08,90.03,90.06,2235
188,90.17,90.17,90.06,90.1,6743
189,90.22,90.22,90.16,90.16,1750
190,90.15,90.21,90.12,90.21,3729
191,90.17,90.18,90.145,90.15,701
192,90.155,90.18,90.13,90.13,735
193,90.14,90.17,90.13,90.17,2100
194,90.11,90.14,90.1,90.14,2935
195,90.16,90.2,90.1,90.11,14991
196,90.17,90.21,90.15,90.19,5691
197,90.21,90.22,90.151,90.151,5917
198,90.2,90.22,90.1975,90.22,4400
199,90.23,90.23,90.2,90.2,1000
200,90.3,90.31,90.25,90.25,3628
201,90.23,90.28,90.23,90.26,3489
202,90.26,90.28,90.23,90.23,2850
203,90.26,90.27,90.233,90.25,3011
204,90.23,90.26,90.21,90.255,3700
205,90.24,90.25,90.2,90.21,2477
206,90.22,90.235,90.2,90.23,1000
207,90.2,90.23,90.2,90.2,4690
208,90.2241,90.27,90.21,90.21,7217
209,90.23,90.23,90.225,90.225,1100
210,90.25,90.26,90.2,90.23,7345
211,90.23,90.27,90.23,90.27,1100
212,90.27,90.27,90.23,90.24,3355
213,90.29,90.3,90.265,90.29,6237
214,90.36,90.39,90.3,90.3,12992
215,90.36,90.41,90.32,90.36,5653
216,90.27,90.34,90.27,90.34,700
217,90.3,90.3,90.265,90.265,200
218,90.26,90.275,90.24,90.26,2727
219,90.25,90.27,90.23,90.26,6972
220,90.28,90.28,90.218,90.218,1820
221,90.34,90.34,90.28,90.28,1200
222,90.29,90.356,90.29,90.356,1600
223,90.24,90.29,90.23,90.27,4400
224,90.27,90.27,90.23,90.26,7769
225,90.28,90.3,90.24,90.27,9980
226,90.33,90.34,90.28,90.28,1900
227,90.27,90.34,90.27,90.322,1633
228,90.26,90.288,90.255,90.255,4137
229,90.245,90.28,90.245,90.28,900
230,90.29,90.31,90.29,90.29,1774
231,90.36,90.36,90.3,90.31,3222
232,90.35,90.35,90.32,90.32,3450
233,90.34,90.36,90.32,90.35,5948
234,90.36,90.36,90.33,90.34,2294
235,90.35,90.39,90.3448,90.36,2500
236,90.34,90.34,90.34,90.34,100
237,90.4107,90.4107,90.32,90.32,2355
238,90.395,90.42,90.395,90.4,1550
239,90.38,90.382,90.37,90.38,1771
240,90.39,90.39,90.36,90.38,800
241,90.33,90.38,90.33,90.36,1954
242,90.34,90.38,90.33,90.3399,3555
243,90.3499,90.36,90.3499,90.36,457
244,90.35,90.36,90.3426,90.35,1000
245,90.385,90.39,90.33,90.33,4247
246,90.3411,90.39,90.34,90.39,2516
247,90.34,90.34,90.33,90.34,1200
248,90.36,90.36,90.325,90.325,1639
249,90.34,90.36,90.3,90.35,15528
250,90.3,90.35,90.3,90.32,10059
251,90.3,90.36,90.3,90.3,9721
252,90.36,90.36,90.3,90.3,4640
253,90.32,90.38,90.32,90.37,5016
254,90.31,90.33,90.31,90.33,1140
255,90.31,90.32,90.3,90.3,1801
256,90.32,90.32,90.3,90.32,7887
257,90.38,90.38,90.31,90.31,3500
258,90.42,90.42,90.3883,90.3883,1200
259,90.4,90.44,90.39,90.43,3083
260,90.39,90.3916,90.38,90.39,1440
261,90.39,90.41,90.39,90.41,700
262,90.39,90.42,90.39,90.41,1410
263,90.44,90.44,90.41,90.42,2233
264,90.42,90.46,90.4,90.44,14188
265,90.41,90.42,90.4,90.4,400
266,90.41,90.423,90.4,90.423,3740
267,90.39,90.4099,90.39,90.405,2512
268,90.37,90.37,90.37,90.37,800
269,90.37,90.39,90.37,90.37,2300
270,90.35,90.365,90.31,90.365,1250
271,90.35,90.35,90.32,90.325,2722
272,90.35,90.35,90.34,90.35,4950
273,90.4,90.4,90.34,90.35,5713
274,90.395,90.4,90.3739,90.3739,7550
275,90.3231,90.4,90.32,90.395,4459
276,90.32,90.33,90.32,90.32,1337
277,90.325,90.34,90.32,90.32,2400
278,90.34,90.34,90.31,90.31,2216
279,90.4,90.43,90.34,90.34,9824
280,90.4,90.43,90.39,90.4,2950
281,90.4,90.41,90.38,90.4,9135
282,90.44,90.46,90.4,90.4,10896
283,90.43,90.44,90.4,90.438,3014
284,90.4883,90.5,90.41,90.42,7893
285,90.53,90.53,90.48,90.5,7688
286,90.53,90.54,90.5,90.505,3313
287,90.525,90.54,90.51,90.53,2764
288,90.475,90.51,90.47,90.51,6956
289,90.47,90.48,90.46,90.48,1311
290,90.475,90.49,90.45,90.47,5081
291,90.52,90.52,90.46,90.475,7149
292,90.58,90.58,90.52,90.52,1150
293,90.64,90.64,90.54,90.55,3050
294,90.68,90.68,90.61,90.64,2700
295,90.59,90.68,90.59,90.68,6600
296,90.55,90.61,90.55,90.57,5252
297,90.53,90.56,90.53,90.56,1951
298,90.52,90.58,90.52,90.55,3501
299,90.59,90.61,90.56,90.56,5910
300,90.63,90.64,90.61,90.61,6496
301,90.63,90.64,90.62,90.64,4000
302,90.62,90.64,90.61,90.64,4608
303,90.625,90.64,90.59,90.62,47300
304,90.615,90.66,90.615,90.625,8100
305,90.6,90.64,90.6,90.61,6300
306,90.6,90.62,90.59,90.6,3700
307,90.585,90.59,90.58,90.59,900
308,90.62,90.63,90.58,90.58,2863
309,90.66,90.66,90.6,90.61,4000
310,90.67,90.67,90.64,90.66,2300
311,90.68,90.68,90.67,90.68,4671
312,90.65,90.73,90.64,90.68,12185
313,90.65,90.67,90.6,90.63,2900
314,90.63,90.69,90.63,90.69,2800
315,90.54,90.65,90.54,90.65,3590
316,90.57,90.57,90.53,90.53,2300
317,90.6,90.6,90.55,90.57,15085
318,90.59,90.62,90.58,90.62,2485
319,90.55,90.57,90.55,90.57,1733
320,90.63,90.63,90.55,90.55,19578
321,90.62,90.63,90.62,90.63,3999
322,90.61,90.63,90.57,90.61,3900
323,90.63,90.63,90.58,90.58,2841
324,90.63,90.63,90.62,90.63,5560
325,90.68,90.68,90.6316,90.6316,2600
326,90.553,90.64,90.553,90.64,2199
327,90.57,90.58,90.555,90.57,4874
328,90.53,90.57,90.53,90.57,4413
329,90.57,90.57,90.52,90.53,3354
330,90.58,90.59,90.5798,90.58,1000
331,90.59,90.61,90.56,90.5766,13260
332,90.64,90.64,90.58,90.58,13570
333,90.6415,90.66,90.63,90.66,3124
334,90.68,90.68,90.63,90.64,1870
335,90.66,90.69,90.65,90.68,13454
336,90.72,90.74,90.66,90.66,11864
337,90.86,90.86,90.71,90.71,31158
338,90.93,90.94,90.88,90.88,3892
339,90.92,90.95,90.91,90.9262,4363
340,90.89,90.93,90.86,90.91,4950
341,90.86,90.88,90.848,90.87,8314
342,90.775,90.85,90.775,90.84,4936
343,90.8,90.8,90.76,90.77,3700
344,90.768,90.7941,90.76,90.7941,3019
345,90.79,90.8,90.77,90.78,3985
346,90.76,90.8,90.75,90.8,3700
347,90.77,90.78,90.74,90.78,31000
348,90.83,90.85,90.78,90.78,13653
349,90.85,90.88,90.84,90.84,8204
350,90.82,90.87,90.81,90.87,8442
351,90.85,90.87,90.82,90.83,3096
352,90.72,90.85,90.72,90.85,8514
353,90.75,90.76,90.72,90.72,11600
354,90.8,90.8,90.745,90.75,10055
355,90.82,90.85,90.78,90.79,8376
356,90.87,90.88,90.83,90.83,2601
357,90.85,90.88,90.85,90.875,6200
358,90.76,90.86,90.76,90.85,8766
359,90.8198,90.8198,90.74,90.76,5036
360,90.8076,90.83,90.8,90.82,3247
361,90.85,90.85,90.82,90.82,14430
362,90.83,90.85,90.8265,90.84,13287
363,90.86,90.87,90.84,90.84,11082
364,90.91,90.93,90.8501,90.86,12481
365,90.98,90.98,90.92,90.92,10671
366,90.94,90.98,90.94,90.98,5789
367,90.97,90.97,90.91,90.91,12138
368,90.98,90.98,90.97,90.98,6402
369,91.01,91.06,90.975,90.98,11109
370,90.98,91.01,90.98,91,4654
371,90.94,90.97,90.93,90.97,6476
372,90.94,90.95,90.91,90.94,7503
373,90.86,90.94,90.85,90.93,7802
374,90.83,90.88,90.83,90.86,48229
375,90.81,90.86,90.8,90.82,17685
376,90.83,90.84,90.7601,90.81,11917
377,90.88,90.88,90.83,90.83,19700
378,90.85,90.89,90.82,90.89,19719
379,90.94,90.95,90.85,90.85,30706
380,90.9701,90.99,90.94,90.95,13781
381,91.03,91.03,90.94,90.97,28341
382,91.01,91.06,91.01,91.03,18538
383,91,91.02,90.98,91,17462
384,90.99,91,90.94,91,13714
385,90.93,91,90.91,91,45090
386,90.95,91.01,90.92,90.94,47338
387,90.99,91.03,90.9441,90.95,77152
388,90.99,91.04,90.98,91,29326
389,90.9,91,90.88,90.99,98822
390,90.84,90.94,90.76,90.9,276532
