PPG,PPG Industries,Materials,8,Specialty Chemicals,28504098630,1340217
a1493991120,110.235,110.375,110,110,7675
1,110.02,110.3,110.02,110.3,1700
2,109.8875,110.03,109.83,110.03,1119
3,109.94,110.03,109.94,109.95,400
4,110.04,110.04,110.03,110.03,200
5,110.06,110.1,109.91,109.985,2500
6,110.06,110.06,110.06,110.06,100
7,110.155,110.16,110.09,110.11,1000
8,110.1899,110.19,110.125,110.15,400
9,110.1,110.11,110.1,110.11,600
10,110.13,110.13,110.11,110.11,300
11,110.14,110.17,110.06,110.14,600
12,110.16,110.16,110.16,110.16,100
14,110.14,110.14,110.07,110.09,1100
15,110.16,110.16,110.1,110.12,1700
16,110.18,110.18,110.11,110.17,340
17,110.21,110.21,110.1501,110.19,673
18,110.18,110.18,110.13,110.16,1100
19,110.16,110.16,110.1,110.13,1400
20,110.17,110.2,110.15,110.15,400
21,110.18,110.2,110.18,110.2,500
22,110.25,110.25,110.19,110.23,1900
23,110.15,110.2,110.15,110.2,411
24,110.09,110.15,110.09,110.12,800
25,110.1075,110.12,110.09,110.09,1200
26,110.12,110.14,110.11,110.1199,600
27,110.18,110.18,110.15,110.15,1000
28,110.09,110.18,110.09,110.18,3300
29,110.08,110.1,110.07,110.1,2550
30,110.0295,110.07,110.0295,110.07,800
31,110.07,110.07,110.02,110.02,900
32,110.15,110.15,110.1,110.1,894
33,110.19,110.19,110.19,110.19,400
34,110.17,110.17,110.16,110.16,200
35,110.19,110.19,110.15,110.16,2300
36,110.21,110.21,110.2,110.2,400
37,110.29,110.29,110.23,110.23,400
38,110.24,110.34,110.24,110.29,3755
39,110.24,110.24,110.2,110.24,1737
40,110.26,110.26,110.23,110.23,601
41,110.27,110.27,110.27,110.27,100
42,110.32,110.34,110.29,110.29,3512
43,110.29,110.32,110.29,110.32,1141
44,110.25,110.275,110.24,110.26,1600
45,110.2662,110.28,110.255,110.26,1145
46,110.31,110.31,110.26,110.26,2000
47,110.34,110.34,110.335,110.335,200
49,110.28,110.34,110.28,110.34,1701
50,110.26,110.28,110.26,110.28,1400
51,110.3,110.3,110.27,110.27,1200
52,110.3199,110.32,110.3199,110.32,200
53,110.34,110.34,110.32,110.32,300
54,110.28,110.36,110.26,110.36,1700
55,110.28,110.289,110.25,110.28,1758
56,110.28,110.28,110.26,110.26,760
57,110.2999,110.2999,110.29,110.29,200
58,110.31,110.35,110.3,110.3,1500
59,110.26,110.3,110.26,110.3,1500
60,110.32,110.32,110.265,110.29,1340
61,110.26,110.27,110.235,110.27,1200
62,110.18,110.26,110.18,110.25,1842
64,110.2038,110.22,110.19,110.2,1968
65,110.22,110.22,110.22,110.22,200
66,110.21,110.2499,110.21,110.2499,1077
67,110.21,110.24,110.21,110.24,1108
68,110.26,110.285,110.22,110.22,2500
69,110.2325,110.2325,110.2325,110.2325,225
70,110.2,110.235,110.18,110.21,1901
71,110.22,110.22,110.19,110.2,800
72,110.22,110.23,110.22,110.22,300
73,110.28,110.28,110.26,110.26,600
74,110.26,110.26,110.26,110.26,100
75,110.27,110.31,110.27,110.2895,3735
76,110.29,110.29,110.27,110.28,1100
77,110.31,110.32,110.31,110.31,700
78,110.38,110.38,110.34,110.34,500
79,110.4,110.42,110.38,110.38,600
80,110.42,110.44,110.41,110.42,2259
81,110.47,110.47,110.45,110.45,200
82,110.58,110.58,110.46,110.48,2200
83,110.46,110.5,110.46,110.5,1449
84,110.36,110.44,110.36,110.43,2892
85,110.37,110.39,110.361,110.38,1175
86,110.38,110.42,110.36,110.4,4160
87,110.44,110.44,110.4,110.4,1100
88,110.42,110.45,110.39,110.4,2950
89,110.42,110.43,110.42,110.42,3900
90,110.42,110.44,110.42,110.44,700
91,110.46,110.48,110.41,110.41,3250
92,110.5,110.5,110.466,110.48,2513
93,110.52,110.56,110.51,110.51,1900
94,110.55,110.57,110.54,110.54,1100
95,110.55,110.57,110.55,110.55,900
96,110.5,110.55,110.5,110.55,662
97,110.49,110.495,110.48,110.49,1424
98,110.57,110.61,110.51,110.51,5597
99,110.56,110.56,110.55,110.55,600
100,110.6,110.61,110.57,110.57,1675
101,110.61,110.61,110.6,110.6,700
102,110.63,110.63,110.63,110.63,200
103,110.74,110.74,110.63,110.63,3395
104,110.785,110.81,110.76,110.76,1200
105,110.79,110.79,110.76,110.77,3340
107,110.8262,110.8262,110.81,110.81,454
108,110.83,110.83,110.81,110.82,400
109,110.91,110.91,110.83,110.83,3113
110,110.875,110.91,110.86,110.8907,8227
111,110.88,110.89,110.87,110.88,1966
112,110.86,110.88,110.85,110.87,3500
113,110.84,110.88,110.84,110.87,1100
114,110.86,110.86,110.85,110.85,700
115,110.84,110.85,110.84,110.85,300
116,110.83,110.8399,110.827,110.827,468
117,110.89,110.89,110.84,110.84,400
119,110.75,110.86,110.75,110.86,2400
120,110.82,110.82,110.7718,110.7718,1600
122,110.86,110.86,110.805,110.81,1200
123,110.84,110.86,110.84,110.845,900
124,110.86,110.87,110.83,110.83,3308
125,110.88,110.88,110.88,110.88,200
126,110.91,110.93,110.8999,110.8999,1200
127,111.02,111.02,110.94,110.95,4095
128,111.07,111.1,111.04,111.04,3650
129,111.04,111.05,111.03,111.05,5000
130,111.03,111.04,111.01,111.03,8600
131,110.97,111.05,110.97,111.05,5564
132,110.98,110.98,110.97,110.97,325
133,110.98,110.99,110.94,110.984,2117
134,110.99,111.01,110.99,111,1068
135,111,111,110.97,110.98,1400
136,110.97,111,110.97,111,5000
137,110.98,110.99,110.96,110.99,2814
138,111.01,111.01,110.99,110.99,700
139,111.06,111.06,111,111,2000
140,111.04,111.0425,111.03,111.03,3245
141,111.08,111.09,111.06,111.08,5100
142,111.09,111.11,111.08,111.09,5061
143,111.11,111.13,111.09,111.09,1100
144,111.18,111.18,111.12,111.12,1800
145,111.1296,111.18,111.12,111.18,1781
147,111.22,111.22,111.15,111.15,2009
150,111.17,111.22,111.17,111.22,2289
151,111.19,111.21,111.15,111.17,5250
152,111.21,111.21,111.16,111.17,1413
153,111.23,111.23,111.22,111.22,500
154,111.225,111.26,111.22,111.23,4714
155,111.23,111.245,111.22,111.23,3038
156,111.25,111.25,111.23,111.235,700
157,111.28,111.3,111.25,111.26,1896
158,111.32,111.34,111.3,111.32,3500
159,111.3,111.3125,111.27,111.3125,2523
160,111.31,111.33,111.29,111.3,1805
161,111.19,111.29,111.19,111.29,2000
162,111.12,111.16,111.12,111.16,900
163,111.05,111.08,111.05,111.08,300
164,111.01,111.01,111.01,111.01,100
165,110.99,110.99,110.99,110.99,100
166,111,111.01,110.97,110.97,1658
167,110.97,110.97,110.97,110.97,100
168,110.96,110.97,110.96,110.97,400
169,110.95,110.95,110.93,110.93,600
170,110.92,110.95,110.92,110.95,600
171,110.91,110.91,110.91,110.91,200
172,110.89,110.9,110.89,110.9,600
173,110.84,110.86,110.84,110.86,700
175,110.85,110.85,110.85,110.85,800
176,110.83,110.83,110.83,110.83,650
177,110.79,110.79,110.79,110.79,100
178,110.76,110.76,110.76,110.76,100
179,110.74,110.75,110.74,110.75,1848
180,110.76,110.76,110.71,110.71,1510
181,110.71,110.75,110.71,110.75,400
182,110.73,110.74,110.7,110.7,600
183,110.73,110.73,110.73,110.73,200
184,110.74,110.76,110.721,110.721,1010
187,110.7599,110.7599,110.72,110.72,200
188,110.72,110.72,110.7,110.72,1200
189,110.81,110.81,110.75,110.75,1106
191,110.79,110.8,110.79,110.8,400
192,110.7986,110.8099,110.7986,110.8099,209
193,110.82,110.82,110.79,110.81,1600
194,110.84,110.84,110.84,110.84,400
195,110.83,110.86,110.83,110.85,1300
196,110.85,110.85,110.82,110.82,1200
197,110.85,110.85,110.85,110.85,100
199,110.826,110.83,110.8101,110.83,911
200,110.79,110.85,110.79,110.85,1750
202,110.83,110.83,110.81,110.81,500
203,110.8432,110.8432,110.8432,110.8432,300
204,110.84,110.87,110.84,110.85,1074
205,110.83,110.83,110.83,110.83,200
207,110.83,110.83,110.83,110.83,400
208,110.85,110.86,110.85,110.85,300
209,110.86,110.88,110.86,110.88,300
211,110.862,110.862,110.862,110.862,300
212,110.89,110.89,110.87,110.87,900
213,110.89,110.92,110.89,110.91,900
215,110.85,110.85,110.85,110.85,100
216,110.82,110.84,110.82,110.84,398
217,110.8,110.81,110.79,110.8,900
221,110.79,110.8,110.77,110.79,2300
222,110.76,110.77,110.75,110.77,1800
223,110.76,110.76,110.75,110.75,1500
224,110.75,110.755,110.74,110.755,400
225,110.72,110.75,110.72,110.73,1000
226,110.71,110.72,110.69,110.715,1458
227,110.73,110.73,110.71,110.71,700
228,110.73,110.73,110.73,110.73,200
229,110.74,110.74,110.7,110.7,1210
231,110.71,110.72,110.71,110.72,200
232,110.62,110.71,110.6,110.71,7148
233,110.62,110.62,110.54,110.6,7554
234,110.65,110.65,110.64,110.64,300
235,110.62,110.6599,110.59,110.65,11000
236,110.63,110.65,110.63,110.64,500
238,110.65,110.65,110.65,110.65,200
239,110.63,110.66,110.63,110.66,1000
240,110.65,110.65,110.64,110.64,500
241,110.61,110.63,110.61,110.63,300
242,110.61,110.61,110.61,110.61,100
244,110.58,110.59,110.56,110.59,1530
246,110.6,110.6,110.58,110.58,1062
247,110.6,110.6,110.59,110.6,1600
248,110.61,110.61,110.61,110.61,500
250,110.64,110.67,110.6206,110.6206,13416
251,110.66,110.66,110.64,110.64,400
252,110.65,110.655,110.64,110.65,1700
255,110.65,110.65,110.65,110.65,1000
256,110.69,110.69,110.66,110.66,1200
260,110.71,110.71,110.685,110.685,1100
263,110.67,110.7303,110.67,110.7303,2500
264,110.64,110.66,110.6,110.66,15955
265,110.66,110.66,110.64,110.64,500
266,110.7,110.7,110.68,110.68,400
267,110.7,110.72,110.679,110.679,1500
268,110.71,110.71,110.67,110.7,2700
269,110.73,110.75,110.71,110.7241,1100
270,110.746,110.746,110.746,110.746,135
271,110.73,110.73,110.73,110.73,127
272,110.75,110.78,110.75,110.75,901
273,110.77,110.77,110.77,110.77,200
275,110.72,110.75,110.72,110.75,1000
276,110.73,110.73,110.72,110.73,1500
277,110.73,110.73,110.73,110.73,300
279,110.75,110.75,110.74,110.74,600
280,110.73,110.75,110.73,110.74,1261
281,110.682,110.71,110.682,110.71,700
282,110.7,110.71,110.6953,110.6953,1650
283,110.69,110.7,110.69,110.7,1807
284,110.69,110.69,110.69,110.69,950
285,110.7,110.7,110.69,110.69,900
286,110.69,110.69,110.68,110.68,2200
287,110.7,110.71,110.69,110.7,3475
288,110.72,110.72,110.6931,110.695,1446
289,110.72,110.72,110.72,110.72,100
290,110.71,110.72,110.71,110.72,400
291,110.68,110.69,110.68,110.69,322
292,110.66,110.68,110.65,110.68,1305
294,110.65,110.65,110.65,110.65,500
295,110.63,110.64,110.625,110.64,1100
296,110.62,110.62,110.62,110.62,100
298,110.5701,110.59,110.57,110.59,300
299,110.59,110.59,110.575,110.575,2055
300,110.59,110.6,110.5801,110.5801,619
301,110.61,110.61,110.6,110.6,982
302,110.58,110.59,110.58,110.59,445
303,110.54,110.57,110.54,110.57,1296
305,110.53,110.53,110.53,110.53,100
306,110.52,110.52,110.52,110.52,400
307,110.58,110.58,110.53,110.54,1901
309,110.6,110.6,110.6,110.6,300
310,110.61,110.61,110.61,110.61,100
311,110.59,110.6,110.59,110.6,811
312,110.6,110.6,110.58,110.58,625
313,110.59,110.59,110.59,110.59,600
314,110.56,110.59,110.56,110.59,1015
315,110.59,110.59,110.58,110.58,1000
316,110.56,110.56,110.56,110.56,100
317,110.53,110.55,110.51,110.55,1840
318,110.6,110.61,110.52,110.52,2364
320,110.6,110.6,110.6,110.6,100
321,110.58,110.59,110.57,110.59,1025
323,110.59,110.59,110.58,110.58,1095
324,110.62,110.62,110.58,110.58,1500
325,110.59,110.6,110.582,110.6,625
326,110.59,110.6,110.59,110.59,1800
328,110.57,110.59,110.57,110.59,900
329,110.49,110.56,110.49,110.56,2010
330,110.5,110.51,110.47,110.48,2192
331,110.51,110.51,110.51,110.51,600
333,110.53,110.54,110.52,110.52,1381
334,110.54,110.57,110.54,110.54,1325
335,110.55,110.58,110.55,110.58,1040
336,110.58,110.58,110.5668,110.57,1689
337,110.59,110.59,110.58,110.59,1900
338,110.56,110.5764,110.53,110.5764,2359
339,110.57,110.585,110.57,110.57,1765
340,110.56,110.58,110.56,110.58,668
341,110.54,110.555,110.52,110.55,3028
342,110.5,110.54,110.49,110.51,1828
343,110.49,110.51,110.48,110.48,1000
344,110.45,110.51,110.45,110.51,1200
345,110.43,110.46,110.43,110.46,1492
346,110.42,110.43,110.41,110.43,2200
347,110.42,110.42,110.4,110.41,1310
348,110.43,110.45,110.41,110.41,2700
349,110.43,110.445,110.43,110.44,2990
350,110.4,110.42,110.4,110.42,1027
351,110.36,110.39,110.36,110.38,500
352,110.36,110.38,110.36,110.36,1445
353,110.38,110.39,110.37,110.37,2300
354,110.4,110.4,110.375,110.375,2893
355,110.3875,110.41,110.385,110.4,3000
356,110.39,110.39,110.38,110.38,900
358,110.33,110.41,110.32,110.41,4545
359,110.38,110.38,110.32,110.32,4198
360,110.39,110.39,110.36,110.37,2403
361,110.35,110.38,110.35,110.38,1000
362,110.33,110.35,110.33,110.345,2650
363,110.35,110.35,110.335,110.335,1427
364,110.3,110.35,110.3,110.35,38534
365,110.295,110.31,110.285,110.31,46795
366,110.27,110.3,110.27,110.295,6300
367,110.3,110.32,110.265,110.265,6990
368,110.32,110.32,110.265,110.28,2973
369,110.36,110.36,110.31,110.32,2080
370,110.4,110.4,110.37,110.37,2490
371,110.39,110.41,110.39,110.3976,400
372,110.42,110.45,110.41,110.41,3654
373,110.43,110.43,110.4,110.41,5461
374,110.45,110.45,110.42,110.44,4732
375,110.45,110.47,110.42,110.43,3801
376,110.44,110.47,110.44,110.46,942
377,110.45,110.455,110.45,110.45,2001
378,110.45,110.46,110.44,110.46,971
379,110.41,110.45,110.4,110.45,5137
380,110.43,110.44,110.41,110.41,3807
381,110.46,110.46,110.43,110.43,2400
382,110.45,110.47,110.45,110.46,1101
383,110.5,110.5,110.44,110.45,6639
384,110.52,110.53,110.5,110.5,5382
385,110.53,110.53,110.51,110.51,6510
386,110.54,110.55,110.53,110.54,3536
387,110.525,110.56,110.52,110.56,5884
388,110.56,110.56,110.48,110.53,12436
