EOG,EOG Resources,Energy,3,Oil & Gas Exploration & Production,53134979445,3014163
a1493299800,93.64,93.64,93.5,93.57,20794
1,93.33,93.7,93.27,93.5,11325
2,93.36,93.4,93.31,93.38,3100
3,93.46,93.57,93.36,93.36,5525
4,93.23,93.54,93.15,93.54,8178
5,93.26,93.37,93.18,93.1974,8627
6,93.37,93.46,93.31,93.36,3187
7,93.56,93.58,93.37,93.46,6266
8,93.3,93.58,93.25,93.58,10873
9,93.35,93.43,93.25,93.26,10299
10,93.22,93.385,93.22,93.345,3425
11,93.25,93.3499,93.2,93.265,10102
12,93.09,93.29,93.09,93.27,9419
13,93.28,93.32,93.09,93.09,10525
14,93.41,93.41,93.28,93.28,7250
15,93.375,93.4533,93.36,93.4533,7195
16,93.32,93.42,93.28,93.34,19879
17,93.2,93.34,93.2,93.33,14701
18,93.21,93.21,93.13,93.18,5256
19,93.13,93.26,93.13,93.22,3378
20,93.34,93.34,93.16,93.16,4903
21,93.39,93.42,93.22,93.32,7660
22,93.3,93.45,93.29,93.41,8252
23,93.3,93.32,93.21,93.29,8061
24,93.33,93.34,93.28,93.33,4389
25,93.33,93.38,93.3,93.33,4600
26,93.19,93.339,93.13,93.339,18525
27,93.16,93.22,93.16,93.2,7827
28,93.11,93.15,93.08,93.14,3875
29,93.02,93.1499,93.02,93.1,8407
30,92.88,93.07,92.86,93.02,32663
31,92.88,92.95,92.81,92.87,40218
32,92.94,92.96,92.82,92.86,10693
33,92.93,92.98,92.84,92.94,8838
34,92.68,92.92,92.6721,92.89,17507
35,92.7,92.79,92.67,92.67,22554
36,92.73,92.76,92.68,92.68,5341
37,92.76,92.8,92.71,92.73,10760
38,92.665,92.76,92.65,92.76,5409
39,92.63,92.7,92.61,92.6537,4177
40,92.55,92.68,92.55,92.65,9350
41,92.635,92.67,92.55,92.55,19343
42,92.5969,92.67,92.57,92.67,33908
43,92.586,92.61,92.56,92.59,8884
44,92.52,92.56,92.48,92.56,15288
45,92.45,92.51,92.44,92.5,12676
46,92.39,92.46,92.38,92.45,12880
47,92.37,92.41,92.31,92.38,11383
48,92.39,92.4,92.32,92.4,7398
49,92.32,92.44,92.32,92.39,13223
50,92.35,92.39,92.32,92.35,15255
51,92.33,92.345,92.29,92.345,10144
52,92.14,92.33,92.12,92.33,15350
53,92.08,92.19,92.08,92.16,39355
54,92.03,92.08,92.03,92.07,5781
55,92.09,92.09,91.9907,92.05,13769
56,92.08,92.1,92.02,92.1,6453
57,92.06,92.11,92.03,92.06,5320
58,92.04,92.12,92.03,92.11,7217
59,91.99,92.051,91.99,92.04,8987
60,92.06,92.08,91.96,91.97,7318
61,92.03,92.1,92,92.08,11201
62,92.07,92.1,92.02,92.03,7646
63,92.06,92.09,92,92.06,4693
64,92.08,92.12,92.06,92.09,7875
65,92.11,92.13,92.04,92.08,13002
66,92.05,92.13,92.04,92.1,10237
67,91.953,92.08,91.94,92.08,10589
68,92.01,92.03,91.96,91.96,6542
69,92,92.03,91.98,91.99,13183
70,91.93,92,91.93,92,5389
71,91.89,91.98,91.88,91.94,4584
72,91.87,91.94,91.87,91.89,4100
73,91.91,91.92,91.87,91.885,3907
74,91.79,91.91,91.79,91.895,7335
75,91.73,91.84,91.7,91.79,7114
76,91.58,91.7,91.58,91.7,12562
77,91.44,91.59,91.44,91.58,14271
78,91.4723,91.52,91.39,91.44,7686
79,91.42,91.46,91.42,91.44,2600
80,91.37,91.41,91.29,91.41,8816
81,91.32,91.43,91.32,91.4159,14520
82,91.23,91.35,91.2,91.34,10294
83,91.205,91.33,91.19,91.21,16195
84,91.32,91.33,91.2,91.21,7603
85,91.26,91.37,91.25,91.37,3516
86,91.28,91.3,91.25,91.26,8417
87,91.32,91.34,91.28,91.28,7979
88,91.2958,91.37,91.16,91.32,19911
89,91.3,91.33,91.28,91.295,12724
90,91.27,91.36,91.27,91.305,12661
91,91.305,91.32,91.24,91.28,13670
92,91.33,91.34,91.28,91.3,20039
93,91.4,91.41,91.32,91.33,10801
94,91.36,91.45,91.36,91.39,12821
95,91.27,91.38,91.27,91.38,7581
96,91.38,91.38,91.275,91.28,29516
97,91.4,91.41,91.37,91.39,4058
98,91.45,91.45,91.365,91.388,7933
99,91.44,91.4942,91.44,91.48,5488
100,91.57,91.57,91.45,91.45,3700
101,91.6194,91.62,91.55,91.57,18540
102,91.53,91.64,91.53,91.62,3514
103,91.65,91.6899,91.56,91.58,4532
104,91.715,91.735,91.66,91.66,9030
105,91.725,91.77,91.71,91.73,5150
106,91.68,91.745,91.68,91.745,15479
107,91.72,91.74,91.66,91.68,27546
108,91.73,91.74,91.67,91.71,12928
109,91.755,91.77,91.66,91.72,11178
110,91.77,91.78,91.75,91.7675,4274
111,91.65,91.77,91.63,91.77,6695
112,91.62,91.669,91.59,91.65,12424
113,91.605,91.61,91.59,91.61,3831
114,91.66,91.66,91.59,91.59,6257
115,91.74,91.76,91.67,91.67,7816
116,91.8,91.8,91.7418,91.7418,8456
117,91.83,91.87,91.81,91.82,6893
118,91.73,91.83,91.69,91.83,5600
119,91.66,91.7594,91.66,91.7594,7463
120,91.71,91.72,91.65,91.65,9352
121,91.74,91.78,91.7254,91.74,5535
122,91.8,91.8,91.725,91.76,3566
123,91.75,91.775,91.74,91.77,3623
124,91.79,91.79,91.74,91.76,11146
125,91.89,91.91,91.8,91.8,6200
126,91.8,91.91,91.8,91.87,15845
127,91.8,91.81,91.78,91.7932,5949
128,91.75,91.81,91.749,91.795,3600
129,91.71,91.76,91.71,91.76,3357
130,91.74,91.78,91.71,91.72,6938
131,91.71,91.745,91.69,91.74,4400
132,91.6925,91.72,91.65,91.71,7130
133,91.62,91.687,91.58,91.66,6735
134,91.64,91.66,91.595,91.625,8743
135,91.6449,91.68,91.64,91.65,4993
136,91.695,91.74,91.6,91.64,8700
137,91.68,91.71,91.66,91.71,5025
138,91.62,91.69,91.61,91.69,8050
139,91.635,91.65,91.59,91.59,3166
140,91.585,91.65,91.54,91.65,5486
141,91.63,91.64,91.57,91.59,8320
142,91.61,91.645,91.55,91.62,9836
143,91.73,91.73,91.615,91.615,13659
144,91.75,91.79,91.73,91.73,13338
145,91.81,91.81,91.73,91.73,6650
146,91.81,91.84,91.79,91.81,2959
147,91.76,91.83,91.71,91.82,8683
148,91.755,91.77,91.73,91.7587,10716
149,91.69,91.77,91.66,91.77,16212
150,91.745,91.75,91.68,91.705,7150
151,91.81,91.82,91.75,91.76,7100
152,91.84,91.84,91.81,91.83,4151
153,91.84,91.91,91.84,91.85,8953
154,91.89,91.92,91.86,91.86,8947
155,91.92,91.93,91.84,91.87,5173
156,91.905,91.93,91.88,91.92,8058
157,91.89,91.93,91.89,91.92,10469
158,91.88,91.92,91.85,91.8999,9602
159,91.85,91.91,91.83,91.88,10368
160,91.86,91.87,91.79,91.84,4500
161,91.805,91.9,91.79,91.87,2600
162,91.77,91.82,91.75,91.8,6850
163,91.73,91.81,91.73,91.8,3628
164,91.77,91.775,91.7,91.72,3942
165,91.81,91.81,91.76,91.77,8958
166,91.83,91.83,91.79,91.82,2326
167,91.85,91.88,91.82,91.84,10303
168,91.84,91.88,91.82,91.85,4389
169,91.74,91.82,91.74,91.82,4941
170,91.68,91.76,91.68,91.73,9977
171,91.63,91.67,91.63,91.66,4413
172,91.7792,91.7792,91.63,91.64,6862
173,91.8,91.8,91.731,91.751,2809
174,91.79,91.83,91.76,91.82,3430
175,91.74,91.8,91.7,91.8,3948
176,91.82,91.82,91.74,91.765,3573
177,91.88,91.91,91.82,91.82,6572
178,91.86,91.88,91.84,91.88,2636
179,91.9,91.92,91.89,91.89,3200
180,91.94,91.97,91.905,91.95,8277
181,91.97,92,91.93,91.96,7367
182,92,92,91.93,91.98,3000
183,92.02,92.07,91.97,92,3569
184,92.06,92.06,91.96,92.02,4789
185,92.06,92.11,92.03,92.08,4908
186,92.09,92.18,92.08,92.08,9055
187,92.04,92.07,91.99,92.07,7115
188,92.075,92.09,91.99,92.03,5300
189,92.14,92.2,92.07,92.085,8600
190,92.1,92.14,92.1,92.12,2500
191,92.14,92.19,92.1,92.1,4017
192,92.14,92.15,92.1,92.13,4266
193,92.11,92.14,92.09,92.11,1700
194,92.13,92.13,92.09,92.12,2000
195,92.15,92.19,92.12,92.14,5487
196,92.18,92.21,92.13,92.13,2082
197,92.21,92.2338,92.15,92.15,2424
198,92.0834,92.21,92.08,92.21,9935
199,92.1,92.125,92.05,92.07,4447
200,92.11,92.12,92.09,92.12,3518
201,92.04,92.14,92.04,92.115,4238
202,92.07,92.13,92.06,92.07,4000
203,92.11,92.15,92.08,92.09,8050
204,92.13,92.18,92.1,92.12,4151
205,92.16,92.18,92.1,92.11,4200
206,92.21,92.29,92.13,92.18,10485
207,92.25,92.27,92.23,92.23,2800
208,92.33,92.35,92.27,92.27,5342
209,92.465,92.5,92.3387,92.35,10475
210,92.58,92.58,92.46,92.48,8766
211,92.51,92.61,92.5,92.6,26644
212,92.5,92.54,92.49,92.51,7896
213,92.525,92.55,92.5,92.5,9965
214,92.47,92.525,92.45,92.525,13972
215,92.52,92.52,92.446,92.49,8672
216,92.51,92.52,92.5,92.5,10733
217,92.47,92.54,92.45,92.515,3400
218,92.45,92.48,92.4425,92.48,2600
219,92.365,92.46,92.34,92.46,5146
220,92.41,92.43,92.33,92.35,5175
221,92.5,92.5,92.43,92.43,1550
222,92.455,92.485,92.42,92.47,7200
223,92.43,92.4525,92.4049,92.45,2553
224,92.36,92.45,92.36,92.45,6683
225,92.355,92.355,92.29,92.32,1940
226,92.36,92.4,92.36,92.37,2600
227,92.4,92.4,92.35,92.35,2918
228,92.42,92.45,92.4,92.41,3840
229,92.35,92.415,92.34,92.415,2600
230,92.3855,92.41,92.33,92.37,5118
231,92.4075,92.42,92.38,92.38,1433
232,92.34,92.4,92.31,92.4,4514
233,92.38,92.39,92.34,92.34,3300
234,92.38,92.394,92.35,92.394,2914
235,92.39,92.4,92.365,92.4,1811
236,92.38,92.3903,92.34,92.3903,3481
237,92.36,92.38,92.36,92.38,1357
238,92.37,92.43,92.35,92.36,9630
239,92.43,92.44,92.34,92.37,5115
240,92.41,92.45,92.39,92.41,4500
241,92.42,92.42,92.38,92.41,2110
242,92.445,92.445,92.37,92.4244,5700
243,92.41,92.42,92.36,92.42,3600
244,92.35,92.38,92.31,92.38,29088
245,92.4,92.4,92.35,92.35,5701
246,92.41,92.44,92.39,92.4,2903
247,92.45,92.45,92.4,92.4283,7150
248,92.435,92.435,92.39,92.43,2100
249,92.485,92.5,92.44,92.44,9348
250,92.64,92.65,92.47,92.49,6231
251,92.61,92.675,92.59,92.6507,12767
252,92.66,92.77,92.63,92.63,8279
253,92.73,92.77,92.68,92.68,15080
254,92.77,92.77,92.71,92.71,1700
255,92.65,92.745,92.63,92.745,6520
256,92.62,92.67,92.62,92.67,1043
257,92.67,92.71,92.61,92.65,15900
258,92.65,92.71,92.65,92.69,3522
259,92.695,92.72,92.62,92.64,5367
260,92.75,92.75,92.69,92.72,2700
261,92.78,92.81,92.745,92.76,5366
262,92.74,92.8088,92.74,92.8,1315
263,92.725,92.809,92.72,92.75,4422
264,92.76,92.79,92.74,92.74,3648
265,92.78,92.785,92.76,92.76,600
266,92.81,92.85,92.8,92.8,3338
267,92.89,92.91,92.83,92.83,6508
268,92.86,92.88,92.83,92.87,4653
269,92.88,92.93,92.82,92.88,12118
270,92.9,92.93,92.84,92.885,4340
271,92.86,92.91,92.8,92.91,2700
272,92.9,92.9,92.84,92.86,4700
273,92.94,92.94,92.8964,92.9,3813
274,92.86,92.95,92.86,92.95,3238
275,92.91,92.91,92.84,92.88,4654
276,92.85,92.92,92.84,92.92,6104
277,92.82,92.89,92.82,92.85,4786
278,92.89,92.89,92.8203,92.8203,9141
279,92.885,92.91,92.83,92.9,5500
280,92.845,92.94,92.845,92.885,5643
281,92.885,92.91,92.86,92.86,2108
282,92.85,92.89,92.83,92.885,6278
283,92.86,92.86,92.82,92.83,7901
284,92.84,92.855,92.82,92.855,3418
285,92.81,92.84,92.81,92.81,4914
286,92.76,92.84,92.73,92.81,9307
287,92.83,92.83,92.74,92.76,5710
288,92.9,92.9,92.7701,92.825,5954
289,92.87,92.875,92.85,92.875,2300
290,92.93,92.95,92.88,92.88,5154
291,92.9,92.95,92.88,92.9,8170
292,92.96,92.99,92.91,92.91,5400
293,92.9,92.94,92.88,92.93,3600
294,92.88,92.92,92.86,92.92,3700
295,92.89,92.8925,92.86,92.88,3900
296,92.84,92.91,92.84,92.91,1940
297,92.83,92.84,92.79,92.8156,2699
298,92.75,92.85,92.72,92.815,4196
299,92.73,92.8,92.71,92.76,1500
300,92.7227,92.77,92.71,92.71,3222
301,92.84,92.84,92.73,92.75,6175
302,92.87,92.9,92.8289,92.8289,4900
303,92.875,92.89,92.86,92.87,2800
304,93.02,93.04,92.86,92.86,7041
305,93.015,93.03,92.99,93.0244,5420
306,92.94,93.02,92.94,93.02,2300
307,92.95,92.98,92.91,92.92,2965
308,92.88,92.94,92.88,92.94,800
309,92.91,92.93,92.86,92.89,5751
310,92.91,92.97,92.89,92.8966,3767
311,92.92,92.93,92.9,92.93,2300
312,92.97,92.98,92.915,92.92,3398
313,92.93,93.006,92.92,92.9836,5000
314,92.9,92.94,92.88,92.92,4180
315,92.9,92.9,92.84,92.87,1100
316,92.93,92.985,92.9,92.9,5020
317,92.995,93.03,92.93,92.93,5500
318,93,93.01,92.96,92.96,1300
319,93.01,93.03,92.99,93.02,2729
320,93.04,93.04,93,93.025,2402
321,93.05,93.05,93.03,93.03,2200
322,93.01,93.04,92.982,93.04,5500
323,92.92,93,92.89,92.99,2910
324,93.02,93.03,92.92,92.92,4209
325,93.08,93.08,93.05,93.05,3600
326,93.01,93.07,92.99,93.06,4438
327,92.99,93.01,92.98,93.01,2430
328,92.98,93.01,92.97,92.99,2000
329,92.98,93,92.97,92.97,3332
330,93.04,93.04,92.98,92.98,1420
331,93.01,93.04,92.98,93.03,2700
332,92.94,93,92.9,92.99,5414
333,92.92,92.945,92.87,92.945,4017
334,92.85,92.9101,92.85,92.8926,6105
335,92.97,92.97,92.88,92.88,8151
336,92.97,92.97,92.9499,92.97,3220
337,92.86,92.95,92.86,92.95,14400
338,92.89,92.91,92.84,92.8525,7622
339,92.86,92.91,92.8,92.88,8525
340,92.85,92.88,92.84,92.87,3704
341,92.81,92.86,92.81,92.84,6934
342,92.76,92.81,92.76,92.81,6000
343,92.73,92.77,92.72,92.76,6527
344,92.821,92.83,92.73,92.7308,3452
345,92.885,92.91,92.84,92.85,4038
346,92.85,92.9,92.84,92.885,7114
347,92.8,92.87,92.8,92.85,5500
348,92.89,92.9,92.7959,92.7959,7070
349,92.88,92.92,92.88,92.88,3356
350,92.851,92.91,92.85,92.88,8326
351,92.9207,92.94,92.87,92.87,5426
352,92.9687,92.97,92.9,92.93,5912
353,93.02,93.03,92.97,92.97,4129
354,93.04,93.055,93.03,93.04,4063
355,93.04,93.04,92.9847,93.02,5493
356,92.99,93.08,92.98,93.06,5882
357,92.99,93.02,92.97,92.98,3751
358,92.975,93,92.96,92.99,7538
359,92.9411,92.98,92.9,92.97,6046
360,93.05,93.06,92.913,92.94,6385
361,93.13,93.13,93.05,93.06,7232
362,93.13,93.14,93.072,93.1,21062
363,93.05,93.13,93.03,93.13,7455
364,93,93.04,92.93,93.04,8500
365,93.02,93.04,92.96,93.01,10277
366,93.02,93.06,93.02,93.02,7261
367,92.99,93.03,92.98,93.03,7361
368,92.9799,93,92.93,93,7587
369,92.95,92.99,92.94,92.98,7457
370,92.96,92.985,92.94,92.94,7292
371,92.96,92.98,92.93,92.96,9050
372,92.93,92.97,92.92,92.969,8701
373,92.955,92.96,92.93,92.94,12077
374,92.92,92.99,92.92,92.96,11458
375,92.85,92.945,92.85,92.945,18843
376,92.88,92.88,92.84,92.85,9567
377,92.82,92.9,92.79,92.88,20987
378,92.74,92.81,92.74,92.81,13903
379,92.72,92.76,92.71,92.75,18854
380,92.72,92.73,92.71,92.72,13049
381,92.805,92.81,92.71,92.72,24959
382,92.8,92.82,92.79,92.8,20246
383,92.86,92.86,92.79,92.79,15629
384,92.95,92.97,92.86,92.86,14630
385,92.89,92.95,92.88,92.95,18698
386,92.81,92.9,92.8,92.88,17800
387,92.79,92.82,92.785,92.8,21666
388,92.845,92.85,92.78,92.78,16909
389,92.89,92.92,92.82,92.8499,48089
390,93.01,93.02,92.89,92.89,61680
