PPG,PPG Industries,Materials,8,Specialty Chemicals,28424673285,1540970
a1493299800,110.58,110.58,110.58,110.58,8966
1,110.52,110.98,110.46,110.605,5037
2,110.55,110.55,110.35,110.43,1500
3,110.63,110.82,110.53,110.58,1900
4,110.81,110.81,110.66,110.73,800
5,110.78,111,110.67,110.72,10350
6,110.78,110.91,110.691,110.74,2050
7,110.64,110.83,110.605,110.83,3968
8,110.76,110.76,110.61,110.66,1350
9,110.65,110.69,110.64,110.67,2850
10,110.68,110.77,110.65,110.65,4820
11,110.53,110.66,110.52,110.66,5403
12,110.43,110.51,110.3,110.51,4500
13,110.43,110.52,110.43,110.46,2800
14,110.3796,110.4255,110.36,110.4255,1150
15,110.355,110.37,110.355,110.37,200
16,110.39,110.42,110.305,110.38,900
17,110.6,110.6,110.45,110.45,1200
18,110.63,110.81,110.58,110.58,7800
19,110.71,110.725,110.63,110.63,1200
20,110.66,110.66,110.63,110.63,500
21,110.65,110.67,110.65,110.67,242
22,110.685,110.7,110.6634,110.67,601
23,110.72,110.72,110.63,110.67,2200
24,110.78,110.78,110.78,110.78,100
25,110.81,110.81,110.76,110.78,2600
26,110.77,110.815,110.77,110.815,700
27,110.6689,110.82,110.65,110.8,5100
28,110.62,110.7,110.58,110.66,10017
29,110.64,110.73,110.62,110.62,8000
30,110.735,110.735,110.675,110.69,600
31,110.73,110.75,110.695,110.695,718
32,110.82,110.84,110.8,110.8,2150
33,110.93,110.93,110.85,110.85,2500
34,110.97,110.97,110.89,110.91,8511
35,111.01,111.01,110.96,110.96,5012
36,111.06,111.07,110.98,110.98,3625
37,111.01,111.06,111.01,111.06,4200
38,111.005,111.05,110.9913,111.01,8218
39,110.95,110.98,110.95,110.98,400
40,110.96,110.99,110.95,110.96,1300
41,110.93,110.97,110.93,110.95,7974
42,110.89,110.92,110.89,110.9,2200
43,110.935,110.95,110.91,110.91,1164
44,110.97,110.97,110.91,110.96,900
45,111.0585,111.0585,111,111.02,1600
46,111.055,111.08,111.04,111.04,2300
47,111.05,111.06,111.03,111.03,9756
48,111.05,111.08,111.045,111.045,2600
49,111.12,111.12,111.09,111.1,1000
50,111.12,111.125,111.1129,111.125,520
51,111.1,111.12,111.08,111.11,5052
52,111.07,111.0946,111.03,111.09,3284
53,111.13,111.14,111.1,111.1,1000
54,111.11,111.13,111.09,111.13,4400
55,111.07,111.11,111.07,111.11,1200
56,111.06,111.08,111.04,111.06,3050
57,111.1,111.1,111.08,111.08,200
58,111.15,111.15,111.105,111.11,5600
59,111.16,111.17,111.1,111.15,18414
60,111.16,111.16,111.14,111.16,3950
61,111.18,111.21,111.1,111.15,14950
62,111.17,111.175,111.17,111.175,400
63,111.15,111.15,111.1,111.14,4000
64,111.17,111.17,111.17,111.17,200
65,111.185,111.19,111.17,111.19,400
66,111.19,111.19,111.18,111.18,200
67,111.12,111.2,111.12,111.2,3199
68,111.17,111.17,111.11,111.12,5050
69,111.1275,111.18,111.1275,111.16,3410
70,111.1455,111.1455,111.118,111.118,906
71,111.13,111.13,111.125,111.125,450
72,111.11,111.125,111.1,111.11,2400
73,111.11,111.14,111.09,111.11,5500
74,111.12,111.135,111.1,111.11,5031
75,111.11,111.13,111.1,111.11,3398
76,111.14,111.14,111.1,111.1,1446
77,111.1,111.13,111.08,111.13,5495
78,111.12,111.13,111.1,111.1,700
79,111.11,111.12,111.11,111.12,600
80,110.93,111.1,110.915,111.1,8018
81,110.965,110.98,110.91,110.94,8407
82,110.755,110.98,110.75,110.96,8875
83,110.755,110.755,110.755,110.755,100
84,110.79,110.8,110.755,110.755,5817
85,110.76,110.79,110.73,110.78,3686
86,110.72,110.77,110.72,110.765,6027
87,110.715,110.72,110.69,110.72,7476
88,110.68,110.72,110.68,110.72,6100
89,110.77,110.77,110.67,110.68,5409
90,110.83,110.83,110.79,110.8,3500
91,110.85,110.85,110.8,110.82,3300
92,110.885,110.89,110.84,110.85,4482
93,110.89,110.89,110.84,110.87,5593
94,110.86,110.87,110.86,110.86,1400
95,110.89,110.89,110.87,110.87,300
96,110.91,110.91,110.89,110.89,2600
97,110.88,110.91,110.87,110.91,2400
98,110.91,110.91,110.88,110.88,1100
99,110.91,110.92,110.91,110.92,500
100,110.89,110.915,110.89,110.91,1700
101,110.9,110.92,110.89,110.895,4503
102,110.9,110.9,110.87,110.9,3702
103,110.93,110.94,110.91,110.92,10200
104,110.94,110.95,110.9286,110.9286,1500
105,111.01,111.02,110.99,110.99,1999
106,111.005,111.02,110.995,111.01,4573
107,111.055,111.055,111.01,111.01,2426
108,111.04,111.05,111.04,111.05,400
109,111.07,111.08,111.04,111.045,2737
110,111.08,111.08,111.08,111.08,800
111,111.07,111.08,111.07,111.075,500
112,111.07,111.13,111.06,111.08,2900
113,111.08,111.08,111.08,111.08,639
114,111.085,111.09,111.065,111.07,1991
115,111.14,111.15,111.1,111.1,1400
116,111.145,111.16,111.13,111.16,1300
117,111.15,111.16,111.15,111.16,2601
118,111.2,111.2,111.16,111.17,3525
119,111.1701,111.19,111.17,111.19,1209
120,111.15,111.185,111.13,111.17,4500
121,111.16,111.19,111.12,111.14,3708
122,111.2,111.2,111.1999,111.1999,208
123,111.13,111.19,111.13,111.18,10600
124,111.115,111.115,111.11,111.11,400
125,111.1,111.12,111.1,111.12,1800
126,111.08,111.1,111.04,111.1,2700
127,111.05,111.08,111.05,111.07,1641
128,111.02,111.02,111.02,111.02,100
129,111,111.02,111,111.02,2200
130,111.01,111.02,110.99,110.99,2080
131,111.015,111.015,111.015,111.015,100
132,111.03,111.03,110.99,111.01,3300
133,111.04,111.04,111.03,111.03,1400
134,111.105,111.11,111.05,111.05,2400
135,111.12,111.12,111.1,111.11,874
136,111.13,111.1345,111.11,111.12,3252
137,111.12,111.13,111.12,111.13,200
138,111.115,111.135,111.11,111.13,3200
139,111.115,111.13,111.105,111.11,4675
141,111.075,111.12,111.07,111.12,3526
142,111.095,111.1,111.075,111.075,2331
143,111.15,111.16,111.1,111.1,3876
144,111.19,111.19,111.16,111.16,800
145,111.215,111.215,111.18,111.18,1600
146,111.235,111.25,111.2,111.215,3000
147,111.26,111.26,111.24,111.24,3500
148,111.28,111.28,111.25,111.25,1701
149,111.27,111.3,111.24,111.2898,9620
150,111.28,111.29,111.27,111.27,1000
151,111.29,111.29,111.275,111.285,2937
152,111.29,111.3,111.27,111.28,2775
153,111.34,111.34,111.29,111.29,1700
154,111.34,111.34,111.34,111.34,1100
155,111.36,111.36,111.34,111.34,1400
156,111.355,111.36,111.35,111.36,1700
157,111.35,111.3516,111.35,111.3516,1500
158,111.35,111.35,111.34,111.34,500
159,111.33,111.34,111.325,111.34,5001
160,111.38,111.39,111.35,111.35,1827
162,111.36,111.38,111.36,111.38,1200
163,111.34,111.36,111.34,111.35,1800
164,111.34,111.35,111.32,111.32,1400
166,111.36,111.36,111.35,111.35,700
167,111.32,111.37,111.32,111.37,2140
168,111.33,111.35,111.32,111.32,1400
169,111.26,111.26,111.26,111.26,300
170,111.26,111.26,111.26,111.26,700
171,111.23,111.26,111.23,111.26,700
172,111.21,111.24,111.21,111.22,5000
173,111.22,111.22,111.22,111.22,300
174,111.23,111.24,111.23,111.23,800
175,111.17,111.22,111.17,111.22,1500
176,111.19,111.19,111.17,111.17,1162
177,111.19,111.2,111.16,111.17,2200
178,111.16,111.18,111.16,111.18,800
179,111.12,111.16,111.12,111.16,400
180,111.145,111.15,111.14,111.14,600
181,111.19,111.19,111.15,111.15,1300
182,111.21,111.22,111.2,111.2,2900
183,111.23,111.23,111.205,111.205,2744
184,111.22,111.25,111.22,111.24,2000
185,111.21,111.21,111.21,111.21,200
186,111.195,111.22,111.19,111.21,3200
187,111.205,111.21,111.19,111.19,6300
188,111.22,111.22,111.21,111.21,1400
189,111.23,111.23,111.23,111.23,300
190,111.25,111.25,111.22,111.225,2900
191,111.305,111.32,111.25,111.26,6400
192,111.39,111.4,111.28,111.31,9100
193,111.27,111.4,111.27,111.39,7732
194,111.27,111.27,111.27,111.27,200
195,111.28,111.3,111.26,111.277,3412
196,111.35,111.37,111.28,111.28,3200
197,111.4,111.4,111.36,111.36,1170
198,111.33,111.36,111.33,111.36,1500
199,111.34,111.34,111.34,111.34,600
201,111.36,111.36,111.34,111.34,800
202,111.38,111.4,111.38,111.38,1000
203,111.34,111.385,111.34,111.385,1100
204,111.38,111.38,111.33,111.33,1302
205,111.39,111.41,111.37,111.4,1800
206,111.4,111.4,111.39,111.39,841
207,111.42,111.427,111.415,111.415,864
208,111.44,111.45,111.42,111.43,6670
209,111.49,111.49,111.44,111.44,2000
210,111.55,111.58,111.48,111.49,4100
211,111.58,111.6,111.56,111.58,1500
212,111.56,111.56,111.52,111.55,900
213,111.53,111.55,111.53,111.55,1500
214,111.535,111.535,111.535,111.535,100
215,111.57,111.57,111.55,111.55,1501
216,111.56,111.58,111.55,111.58,4200
217,111.56,111.5625,111.55,111.56,1243
218,111.54,111.555,111.54,111.55,1100
219,111.5545,111.56,111.55,111.56,1893
220,111.57,111.57,111.55,111.55,2920
221,111.63,111.63,111.58,111.58,1692
222,111.64,111.6421,111.62,111.63,2286
223,111.59,111.63,111.59,111.62,1300
224,111.76,111.987,111.63,111.63,45380
225,111.71,111.8,111.71,111.76,2300
226,111.74,111.74,111.71,111.71,2201
227,111.7,111.76,111.7,111.76,1900
228,111.7,111.7,111.7,111.7,200
229,111.63,111.67,111.63,111.67,482
230,111.625,111.63,111.58,111.62,2324
231,111.6999,111.71,111.64,111.64,2418
232,111.7,111.71,111.7,111.71,500
233,111.6725,111.71,111.67,111.69,4702
234,111.7,111.7,111.67,111.67,3434
235,111.66,111.71,111.65,111.71,2400
236,111.68,111.68,111.66,111.66,500
237,111.63,111.665,111.63,111.665,300
238,111.65,111.65,111.63,111.63,2300
239,111.6555,111.6555,111.65,111.65,343
240,111.635,111.655,111.63,111.65,2700
241,111.59,111.63,111.59,111.62,7286
242,111.595,111.595,111.58,111.58,400
243,111.59,111.59,111.54,111.55,3200
244,111.6,111.61,111.59,111.5925,4245
245,111.63,111.63,111.61,111.61,3500
246,111.665,111.665,111.63,111.63,4400
247,111.67,111.67,111.65,111.66,3800
248,111.71,111.71,111.69,111.69,500
249,111.73,111.73,111.69,111.69,1800
250,111.7,111.725,111.7,111.72,3000
251,111.72,111.725,111.7,111.7,2000
252,111.7,111.71,111.69,111.71,1300
253,111.72,111.73,111.69,111.69,4400
254,111.72,111.74,111.72,111.73,1900
255,111.71,111.725,111.71,111.71,4275
256,111.71,111.71,111.71,111.71,900
257,111.71,111.73,111.7,111.72,2446
258,111.72,111.73,111.711,111.72,1100
259,111.7,111.72,111.7,111.715,2800
260,111.68,111.7,111.68,111.7,1800
261,111.7,111.71,111.68,111.68,2971
262,111.69,111.7,111.69,111.69,1400
263,111.7,111.7,111.7,111.7,741
264,111.67,111.695,111.67,111.69,2100
265,111.71,111.71,111.67,111.67,6500
266,111.74,111.74,111.71,111.71,2093
267,111.7425,111.75,111.73,111.73,2750
268,111.7325,111.745,111.73,111.74,2700
269,111.715,111.74,111.715,111.725,1573
270,111.73,111.73,111.7,111.715,1516
271,111.71,111.74,111.71,111.74,1300
272,111.75,111.75,111.72,111.72,3200
273,111.81,111.81,111.745,111.745,4000
274,111.81,111.81,111.79,111.8,1801
275,111.79,111.81,111.79,111.79,2850
276,111.765,111.79,111.74,111.78,13994
277,111.75,111.765,111.75,111.765,4231
278,111.715,111.73,111.7098,111.73,1200
279,111.76,111.76,111.72,111.72,3500
280,111.75,111.77,111.74,111.75,5828
281,111.75,111.76,111.72,111.76,3983
282,111.74,111.75,111.74,111.745,3700
283,111.75,111.75,111.72,111.745,4329
284,111.74,111.75,111.72,111.75,3169
285,111.735,111.735,111.73,111.73,300
286,111.74,111.76,111.74,111.74,3500
287,111.71,111.74,111.71,111.74,1400
288,111.653,111.7,111.65,111.7,3310
289,111.65,111.65,111.65,111.65,800
290,111.63,111.65,111.63,111.65,1800
291,111.64,111.655,111.635,111.635,2400
292,111.655,111.655,111.65,111.65,1300
293,111.6838,111.6838,111.6599,111.66,4225
294,111.7,111.7,111.68,111.6841,7055
295,111.7,111.71,111.69,111.7,5643
296,111.685,111.71,111.685,111.705,2348
297,111.67,111.685,111.67,111.685,400
298,111.71,111.71,111.69,111.7,5775
299,111.715,111.72,111.71,111.72,3227
300,111.725,111.73,111.72,111.72,4307
301,111.77,111.77,111.73,111.73,5439
302,111.755,111.77,111.755,111.77,2599
303,111.76,111.77,111.75,111.76,4000
304,111.75,111.77,111.75,111.75,4921
305,111.78,111.78,111.75,111.75,2219
306,111.8224,111.8224,111.79,111.79,3700
307,111.805,111.81,111.795,111.81,900
308,111.795,111.8099,111.79,111.8,4300
309,111.845,111.845,111.795,111.795,2618
310,111.81,111.84,111.81,111.84,3297
311,111.81,111.815,111.8,111.815,1826
312,111.795,111.815,111.795,111.8147,2432
313,111.775,111.8,111.75,111.79,11473
314,111.775,111.78,111.76,111.775,4937
315,111.795,111.795,111.77,111.775,5844
316,111.8,111.805,111.79,111.8,3598
317,111.8,111.82,111.8,111.81,4300
318,111.79,111.795,111.78,111.795,5700
319,111.79,111.79,111.785,111.785,700
320,111.775,111.79,111.77,111.78,5770
321,111.77,111.78,111.76,111.77,7930
322,111.745,111.78,111.73,111.77,5900
323,111.7,111.735,111.7,111.735,5501
324,111.69,111.7,111.69,111.7,1800
325,111.65,111.69,111.65,111.69,2300
326,111.66,111.66,111.64,111.64,3743
327,111.61,111.655,111.61,111.65,2300
328,111.59,111.61,111.58,111.61,3650
329,111.58,111.6,111.58,111.59,2219
330,111.5682,111.58,111.56,111.58,820
331,111.57,111.58,111.56,111.57,4596
332,111.585,111.585,111.56,111.57,4800
333,111.5762,111.585,111.5762,111.58,708
334,111.54,111.58,111.54,111.58,7449
335,111.48,111.53,111.48,111.53,2400
336,111.475,111.49,111.47,111.49,3310
337,111.48,111.5,111.46,111.5,2400
338,111.43,111.475,111.43,111.47,7000
339,111.42,111.44,111.41,111.44,2905
340,111.419,111.42,111.4,111.41,1950
341,111.44,111.44,111.41,111.41,3900
342,111.435,111.44,111.43,111.43,2101
343,111.44,111.445,111.44,111.44,2100
344,111.46,111.46,111.435,111.44,2734
345,111.46,111.47,111.45,111.465,4235
346,111.49,111.49,111.4575,111.46,3933
347,111.47,111.48,111.46,111.48,4314
348,111.45,111.47,111.45,111.46,5630
349,111.405,111.44,111.405,111.44,3700
350,111.4,111.42,111.4,111.4,6500
351,111.41,111.415,111.4,111.4,6402
352,111.43,111.435,111.41,111.41,4788
353,111.45,111.45,111.43,111.44,3600
354,111.42,111.45,111.42,111.45,2394
355,111.43,111.43,111.39,111.41,5528
356,111.44,111.455,111.44,111.44,8961
357,111.42,111.44,111.42,111.44,1300
358,111.425,111.425,111.42,111.42,800
359,111.39,111.425,111.38,111.425,4122
360,111.4,111.415,111.39,111.39,5801
361,111.41,111.41,111.39,111.4,3517
362,111.39,111.41,111.39,111.405,4400
363,111.405,111.405,111.38,111.38,3931
364,111.39,111.405,111.38,111.4,9287
365,111.38,111.39,111.37,111.39,3700
366,111.34,111.38,111.34,111.38,4383
367,111.29,111.33,111.28,111.33,8335
368,111.275,111.29,111.27,111.29,4700
369,111.25,111.285,111.25,111.28,9953
370,111.26,111.27,111.245,111.25,4100
371,111.26,111.26,111.245,111.25,6988
372,111.285,111.285,111.265,111.265,1859
373,111.235,111.285,111.23,111.285,5057
374,111.225,111.24,111.22,111.235,6688
375,111.18,111.23,111.18,111.22,6550
376,111.19,111.21,111.18,111.18,6490
377,111.185,111.195,111.18,111.195,7600
378,111.15,111.185,111.14,111.18,4280
379,111.13,111.15,111.13,111.1442,5609
380,111.13,111.14,111.125,111.13,5933
381,111.08,111.13,111.08,111.13,8015
382,111.07,111.09,111.065,111.08,5141
383,111.12,111.13,111.08,111.08,11246
384,111.11,111.136,111.11,111.12,6120
385,111.11,111.12,111.1,111.115,8245
386,111.125,111.14,111.1,111.1,11157
387,111.14,111.14,111.11,111.125,15153
388,111.17,111.17,111.135,111.135,7600
389,111.19,111.2,111.16,111.17,13769
390,111.28,111.32,111.185,111.19,41682
