EOG,EOG Resources,Energy,3,Oil & Gas Exploration & Production,55320349126,3112824
a1493213460,94.5625,94.69,94.295,94.42,27081
1,94.68,94.68,94.45,94.555,2100
2,94.8317,95.13,94.65,94.65,6651
3,94.74,94.99,94.71,94.75,9825
4,94.75,94.95,94.75,94.75,17400
5,94.89,94.89,94.67,94.85,3776
6,94.78,94.94,94.78,94.85,1357
7,94.85,94.865,94.69,94.748,2600
8,94.79,94.87,94.77,94.79,2900
9,94.82,94.82,94.68,94.78,1800
10,95.07,95.16,94.78,94.815,11169
11,95.09,95.09,94.925,95.08,3750
12,95.01,95.18,95.01,95.1,2942
13,95.02,95.055,95.01,95.03,3800
14,95.08,95.08,95,95.055,5345
15,95.04,95.16,95.04,95.11,2510
16,95.05,95.14,95.05,95.12,7049
17,95.03,95.08,95.03,95.08,300
18,95,95.04,94.93,95.04,3696
19,94.95,95.01,94.92,94.9717,3811
20,94.91,94.98,94.91,94.97,1600
21,94.96,95,94.8,94.88,4500
22,95.07,95.1,94.98,94.98,1900
23,95.09,95.13,94.99,95.09,11720
24,95.15,95.2,95.14,95.14,3345
25,95.185,95.185,95.13,95.13,1100
26,95.21,95.21,95.13,95.17,4520
27,95.22,95.22,95.15,95.16,1550
28,95.21,95.23,95.16,95.22,4200
29,95.26,95.26,95.19,95.19,3000
30,95.1,95.27,95.1,95.22,3154
31,95.07,95.13,95.07,95.1,2300
32,95.11,95.11,95.08,95.08,1300
33,95.095,95.12,95.09,95.09,900
34,95.15,95.15,95.07,95.08,3695
35,95.19,95.19,95.11,95.1298,2200
36,95.23,95.25,95.17,95.21,900
37,95.13,95.26,95.13,95.26,7601
38,95.14,95.18,95.14,95.1475,1800
39,95.08,95.1,95.07,95.1,2170
40,95.14,95.19,95.08,95.08,1400
41,95.17,95.18,95.14,95.15,700
42,95.2,95.22,95.16,95.18,4886
43,95.26,95.31,95.18,95.18,11110
44,95.37,95.37,95.24,95.24,10025
45,95.2805,95.38,95.28,95.38,3010
46,95.17,95.305,95.17,95.28,3300
47,95.1,95.14,95.02,95.14,4368
48,95.16,95.16,95.08,95.1,3065
49,95.26,95.26,95.18,95.18,820
50,95.17,95.24,95.17,95.24,1200
51,95.26,95.29,95.2,95.21,911
52,95.28,95.28,95.2,95.26,4200
53,95.37,95.37,95.32,95.32,899
54,95.45,95.465,95.39,95.39,1405
55,95.5,95.5,95.47,95.47,800
56,95.38,95.5,95.38,95.5,4683
57,95.36,95.41,95.36,95.385,3300
58,95.305,95.39,95.3,95.3712,3901
59,95.43,95.44,95.24,95.31,6115
60,95.77,95.78,95.43,95.47,9507
61,95.98,96,95.555,95.775,28499
62,96.01,96.04,95.87,95.9972,5592
63,96,96.13,95.99,96,12700
64,96.36,96.36,96.035,96.035,11100
65,96.07,96.34,96.05,96.26,2600
66,96.155,96.155,96.02,96.08,2885
67,96.03,96.13,95.97,96.13,4319
68,95.92,96.03,95.91,96.03,1400
69,95.99,96.01,95.88,95.93,3430
70,96.18,96.265,96.01,96.01,5993
71,96.09,96.2,96.03,96.16,1511
72,96.1,96.1,96.045,96.09,3830
73,96.22,96.22,96.15,96.15,2200
74,96.06,96.185,96,96.185,5602
75,96,96.03,96,96.03,1600
76,96.02,96.02,95.92,96.005,3092
77,96.07,96.12,96.05,96.05,3625
78,96.11,96.2,96.06,96.09,2400
79,96.09,96.17,96.08,96.08,1525
80,96.19,96.19,96.058,96.058,2100
81,96.21,96.25,96.19,96.2,1824
82,96.26,96.28,96.19,96.22,3620
83,96.34,96.45,96.27,96.31,3894
84,96.29,96.34,96.21,96.34,2197
85,96.35,96.35,96.24,96.3,3209
86,96.27,96.32,96.23,96.31,8505
87,96.37,96.44,96.27,96.27,11074
88,96.34,96.49,96.34,96.37,5000
89,96.2,96.33,96.2,96.33,5035
90,96.29,96.32,96.21,96.24,6213
91,96.17,96.27,96.15,96.27,1872
92,96.03,96.16,96.02,96.14,3200
93,96.03,96.1,96.01,96.01,1700
94,96.07,96.0842,96.02,96.0842,3544
95,96.15,96.15,96.05,96.09,2900
96,96.13,96.1425,96.11,96.12,1642
97,96,96.12,96,96.12,2536
98,96,96.1,96,96,2770
99,96.01,96.02,95.94,96,4755
100,95.927,95.99,95.927,95.99,2059
101,95.86,95.94,95.86,95.92,14636
102,95.73,95.85,95.73,95.83,2900
103,95.87,95.87,95.755,95.77,3339
104,95.72,95.882,95.72,95.875,3600
105,95.78,95.825,95.7,95.7,3951
106,95.91,95.94,95.78,95.78,2972
107,95.9,95.9,95.84,95.86,800
108,95.89,95.91,95.89,95.89,2490
109,95.9,95.95,95.9,95.93,1600
110,96,96.02,95.93,95.93,3725
111,96.04,96.04,96,96,1200
112,96.11,96.14,96.021,96.021,2700
113,96.21,96.21,96.14,96.14,1500
114,96.24,96.24,96.14,96.15,3700
115,96.28,96.2899,96.22,96.226,3753
116,96.12,96.24,96.12,96.22,1400
117,96.31,96.31,96.175,96.18,3169
118,96.23,96.33,96.19,96.32,2872
119,96.16,96.196,96.16,96.1801,946
120,96.05,96.11,96.05,96.11,800
121,96.02,96.08,96.02,96.03,1700
122,95.94,95.99,95.9103,95.98,2800
123,95.94,96.01,95.94,96,1000
124,95.95,96.03,95.95,95.98,1380
125,95.96,96,95.92,95.92,1000
126,95.98,96.03,95.94,95.95,1901
127,95.982,96,95.975,95.98,1200
128,95.97,96,95.97,95.98,4600
129,96.03,96.04,95.93,96,6500
130,95.99,96.0896,95.99,96.04,2516
131,96,96,95.94,95.99,1940
132,95.92,95.985,95.9,95.97,1803
133,95.93,96.01,95.93,95.94,6813
134,95.81,95.91,95.81,95.91,3840
135,95.88,95.89,95.83,95.83,4231
136,95.63,95.83,95.6,95.83,3915
137,95.75,95.75,95.61,95.65,4040
138,95.71,95.76,95.69,95.76,1900
139,95.64,95.69,95.61,95.66,6911
140,95.67,95.67,95.61,95.63,4100
141,95.645,95.66,95.59,95.64,2800
142,95.68,95.79,95.62,95.62,9974
143,95.68,95.73,95.67,95.68,3791
144,95.74,95.74,95.7,95.71,2132
145,95.74,95.77,95.72,95.76,4140
146,95.8,95.83,95.74,95.74,4041
147,95.67,95.78,95.67,95.78,1800
148,95.68,95.72,95.66,95.67,3502
149,95.62,95.69,95.62,95.65,2364
150,95.56,95.62,95.56,95.6,2400
151,95.63,95.63,95.57,95.58,2160
152,95.66,95.68,95.6,95.63,3700
153,95.63,95.6753,95.63,95.6753,585
154,95.62,95.66,95.62,95.65,2393
155,95.59,95.61,95.56,95.61,3740
156,95.61,95.61,95.58,95.59,3000
157,95.6,95.61,95.54,95.61,2694
158,95.54,95.6195,95.54,95.6195,2093
159,95.55,95.61,95.55,95.56,1600
160,95.59,95.59,95.55,95.55,1018
161,95.6725,95.73,95.6,95.61,8575
162,95.65,95.65,95.63,95.64,2500
163,95.66,95.68,95.62,95.63,1400
164,95.62,95.66,95.62,95.65,2300
165,95.6,95.66,95.6,95.635,2472
166,95.65,95.65,95.59,95.59,3154
167,95.6,95.69,95.6,95.68,2400
168,95.66,95.68,95.61,95.61,2617
169,95.61,95.6646,95.61,95.6646,3700
170,95.53,95.61,95.53,95.6,3500
171,95.46,95.52,95.45,95.52,4900
172,95.43,95.49,95.43,95.48,5747
173,95.44,95.47,95.408,95.42,2600
174,95.39,95.4448,95.39,95.4448,2434
175,95.38,95.42,95.38,95.4,1000
176,95.46,95.47,95.42,95.44,2100
177,95.45,95.45,95.41,95.45,900
178,95.47,95.47,95.4412,95.455,1260
179,95.43,95.47,95.43,95.45,800
180,95.43,95.46,95.41,95.457,1500
181,95.41,95.44,95.41,95.43,900
182,95.42,95.43,95.42,95.43,311
183,95.47,95.48,95.4246,95.4246,2250
184,95.49,95.51,95.48,95.5,2934
185,95.54,95.54,95.51,95.53,300
186,95.506,95.51,95.47,95.51,1674
187,95.4461,95.48,95.4461,95.47,450
188,95.46,95.49,95.44,95.44,1804
189,95.514,95.514,95.45,95.46,2013
190,95.515,95.55,95.51,95.51,3804
191,95.48,95.515,95.48,95.51,1300
192,95.44,95.51,95.44,95.5,1669
193,95.43,95.45,95.43,95.44,900
194,95.44,95.46,95.42,95.42,1100
195,95.4749,95.4749,95.44,95.44,1424
196,95.57,95.57,95.51,95.51,800
197,95.56,95.58,95.54,95.56,900
198,95.43,95.53,95.43,95.53,2000
199,95.39,95.45,95.39,95.445,1407
200,95.41,95.42,95.39,95.41,1900
201,95.42,95.43,95.39,95.41,800
202,95.42,95.42,95.39,95.42,29747
203,95.5,95.5,95.41,95.43,6578
204,95.5,95.52,95.48,95.49,25032
205,95.48,95.49,95.43,95.49,10004
206,95.485,95.49,95.48,95.48,1900
207,95.45,95.49,95.43,95.49,5042
208,95.49,95.505,95.44,95.44,5700
209,95.51,95.5547,95.51,95.53,3514
210,95.47,95.51,95.47,95.51,1301
211,95.46,95.49,95.45,95.47,3994
212,95.37,95.45,95.37,95.45,8303
213,95.35,95.36,95.3,95.36,5250
214,95.25,95.35,95.25,95.33,2785
215,95.33,95.33,95.27,95.27,2032
216,95.31,95.32,95.28,95.32,3560
217,95.35,95.37,95.31,95.32,4902
218,95.37,95.37,95.3373,95.36,1545
219,95.41,95.41,95.344,95.35,600
220,95.38,95.41,95.35,95.38,4100
221,95.34,95.365,95.33,95.365,700
222,95.3449,95.3449,95.3449,95.3449,100
223,95.29,95.335,95.29,95.335,1200
224,95.295,95.32,95.28,95.29,3000
225,95.335,95.35,95.295,95.295,2850
226,95.33,95.38,95.32,95.33,3611
227,95.29,95.32,95.29,95.32,500
228,95.28,95.29,95.275,95.275,900
229,95.26,95.28,95.21,95.28,7600
230,95.235,95.25,95.19,95.25,7400
231,95.2,95.26,95.2,95.25,1300
232,95.24,95.24,95.19,95.2,1600
233,95.21,95.23,95.21,95.23,300
234,95.16,95.21,95.16,95.21,1100
235,95.15,95.16,95.13,95.15,2610
236,95.1,95.14,95.1,95.14,900
237,95.09,95.12,95.07,95.07,1900
238,95.12,95.12,95.08,95.08,1040
239,95.05,95.12,95.05,95.1,1350
240,95.03,95.03,95.01,95.03,1500
241,94.98,95,94.96,95,8359
242,94.8335,94.96,94.8335,94.96,5350
243,94.83,94.88,94.78,94.87,3775
244,94.88,94.89,94.84,94.87,6764
245,94.96,94.96,94.87,94.87,2242
246,94.93,94.98,94.93,94.98,26554
247,94.965,94.98,94.94,94.95,1843
248,95.03,95.03,94.97,94.98,1400
249,95.04,95.06,94.99,95.02,6950
250,95.035,95.08,95.02,95.06,5042
251,94.96,95.04,94.94,95.04,6300
252,94.98,95.04,94.95,94.97,5142
253,95.08,95.08,95.01,95.02,7480
254,95.19,95.21,95.1,95.11,3550
255,95.18,95.21,95.18,95.21,950
256,95.055,95.16,95.04,95.16,8968
257,94.96,95.01,94.96,95,2600
258,94.74,94.94,94.74,94.94,3540
259,94.87,94.9,94.75,94.755,1950
260,94.9,94.91,94.85,94.85,1126
261,95.02,95.02,94.89,94.89,4849
262,95.04,95.07,95,95.035,2400
263,95.07,95.08,95.0358,95.04,1596
264,95.065,95.065,95.065,95.065,233
265,95.065,95.065,95.05,95.05,536
266,95.035,95.085,94.98,95.04,7352
267,95.04,95.05,95,95,2600
268,95,95,94.98,94.99,2740
269,94.98,95.01,94.93,94.98,5000
270,94.8212,94.96,94.82,94.96,3479
271,94.84,94.87,94.83,94.87,2131
272,94.9,94.9,94.85,94.85,800
273,94.8,94.9,94.8,94.89,2501
274,94.83,94.87,94.82,94.82,3200
275,94.83,94.83,94.81,94.82,800
276,94.92,94.94,94.84,94.85,3300
277,94.915,94.95,94.9,94.95,1473
278,95,95,94.89,94.89,1216
279,94.97,95.01,94.96,95,3714
280,94.985,95.0015,94.985,95.0015,374
281,94.885,94.96,94.88,94.96,2654
282,94.95,94.95,94.9,94.9,1195
283,94.8978,94.94,94.89,94.93,1210
284,94.96,94.96,94.9,94.92,2200
285,95.025,95.025,94.97,94.98,22185
286,95.08,95.11,95.04,95.04,6250
287,95.045,95.07,95.02,95.07,2548
288,95,95.02,94.96,95.01,2912
289,95.027,95.027,94.98,95,2309
290,95.005,95.005,94.97,94.983,597
291,95.06,95.085,95.015,95.015,9124
292,95.12,95.14,95.09,95.09,5676
293,95.22,95.23,95.12,95.13,6400
294,95.14,95.22,95.14,95.22,3100
295,95.05,95.1,95.05,95.1,2600
296,95.115,95.12,95.08,95.08,1600
297,95.07,95.14,95.0146,95.14,2768
298,94.99,95.05,94.98,95.05,2445
299,94.92,94.99,94.91,94.98,5853
300,95,95,94.84,94.915,6333
301,94.99,94.99,94.97,94.99,1648
302,94.97,95.02,94.97,95.01,4400
303,94.9,95.02,94.9,94.98,4318
304,94.94,94.98,94.93,94.93,3595
305,94.85,94.9,94.8,94.9,2205
306,94.84,94.87,94.8207,94.84,2726
307,94.76,94.87,94.76,94.84,3000
308,94.75,94.75,94.75,94.75,500
309,94.77,94.78,94.74,94.75,3489
310,94.85,94.85,94.79,94.79,800
311,94.84,94.865,94.83,94.83,3183
312,94.88,94.93,94.86,94.86,3600
313,94.89,94.91,94.84,94.88,4550
314,94.83,94.89,94.81,94.89,3215
315,94.823,94.835,94.81,94.824,1400
316,94.79,94.84,94.79,94.82,3710
317,94.79,94.8,94.76,94.77,7112
318,94.75,94.79,94.73,94.79,2509
319,94.745,94.7675,94.72,94.73,3666
320,94.77,94.77,94.72,94.745,1700
321,94.76,94.79,94.76,94.77,4200
322,94.8,94.8,94.76,94.77,1800
323,94.85,94.85,94.79,94.8,2700
324,94.87,94.88,94.84,94.86,5004
325,94.925,94.9575,94.895,94.9,5500
326,94.84,94.925,94.84,94.925,6476
327,94.83,94.88,94.83,94.84,14557
328,94.9,94.9,94.815,94.82,6041
329,94.84,94.89,94.82,94.89,3631
330,94.84,94.85,94.79,94.82,3962
331,94.91,94.935,94.89,94.89,4562
332,94.89,94.95,94.87,94.94,5132
333,94.9,94.9,94.875,94.89,1196
334,94.91,94.91,94.89,94.91,1720
335,94.91,94.94,94.88,94.94,4806
336,94.965,94.98,94.91,94.94,3227
337,94.99,95.01,94.98,94.99,1791
338,94.98,95,94.97,94.97,1000
339,95.04,95.04,94.98,94.98,2950
340,94.99,95.05,94.99,95.05,5132
341,95.01,95.01,94.98,94.98,1095
342,95.01,95.06,94.98,95.01,4492
343,95.06,95.06,95.01,95.01,2447
344,95.08,95.08,95.0101,95.04,2949
345,95,95.04,94.96,95.04,4539
346,94.95,94.99,94.93,94.99,3920
347,94.92,94.935,94.91,94.935,1350
348,94.93,94.94,94.88,94.93,3939
349,94.93,94.96,94.91,94.95,2959
350,94.97,94.97,94.92,94.93,1400
351,94.96,94.9684,94.94,94.96,1533
352,94.9,94.94,94.88,94.94,2324
353,94.89,94.91,94.87,94.88,2021
354,94.89,94.92,94.89,94.91,1280
355,94.83,94.9,94.83,94.8848,2934
356,94.85,94.865,94.82,94.82,2800
357,94.81,94.83,94.79,94.83,2434
358,94.825,94.825,94.804,94.804,200
359,94.88,94.88,94.82,94.84,3030
360,94.902,94.91,94.88,94.88,1700
361,94.92,94.95,94.92,94.92,3400
362,94.85,94.94,94.85,94.9201,5876
363,94.8184,94.88,94.8184,94.86,5511
364,94.84,94.84,94.8,94.81,4069
365,94.84,94.86,94.81,94.86,3200
366,94.8299,94.84,94.77,94.84,4115
367,94.79,94.82,94.75,94.8,5648
368,94.78,94.81,94.76,94.8,3479
369,94.75,94.79,94.74,94.78,5200
370,94.725,94.77,94.68,94.76,3687
371,94.71,94.74,94.71,94.74,2908
372,94.77,94.77,94.71,94.71,8100
373,94.75,94.77,94.74,94.77,4999
374,94.64,94.75,94.64,94.75,14840
375,94.63,94.64,94.59,94.63,8250
376,94.63,94.64,94.61,94.63,5170
377,94.67,94.67,94.62,94.64,4888
378,94.68,94.68,94.65,94.66,3135
379,94.61,94.7,94.61,94.69,7480
380,94.59,94.66,94.57,94.63,10165
381,94.55,94.61,94.53,94.59,7970
382,94.47,94.57,94.47,94.56,12797
383,94.43,94.51,94.375,94.47,13967
384,94.36,94.43,94.32,94.41,15228
385,94.3,94.42,94.29,94.35,20036
386,94.3,94.34,94.28,94.3,26632
387,94.23,94.3,94.21,94.29,23791
388,94.29,94.39,94.2269,94.23,36604
389,94.32,94.35,94.27,94.28,29661
