PPG,PPG Industries,Materials,8,Specialty Chemicals,29041010331,1536839
a1493213400,110.7,110.89,110.68,110.89,11990
1,110.51,110.845,110.51,110.8,2306
2,110.14,110.53,110.08,110.53,4200
3,110.59,110.67,110.12,110.265,6000
4,110.68,110.79,110.54,110.54,3200
5,110.68,110.6803,110.68,110.68,300
6,110.55,110.69,110.55,110.69,3152
7,110.39,110.6,110.39,110.56,1499
8,110.45,110.52,110.37,110.46,2801
9,110.35,110.46,110.35,110.46,1300
10,110.35,110.39,110.33,110.33,1454
11,110.21,110.43,110.16,110.375,6967
12,110.1122,110.22,110.07,110.22,2050
13,110.14,110.19,110.11,110.11,2700
14,110.06,110.13,110.04,110.12,3700
15,110.06,110.08,109.96,110.06,8963
16,109.89,110.08,109.61,110.08,47884
17,109.76,109.93,109.76,109.93,2477
18,109.69,109.81,109.69,109.805,10244
19,109.74,109.862,109.71,109.83,1446
20,109.76,109.8,109.7022,109.725,4681
21,109.93,109.93,109.79,109.8,5500
22,109.88,109.93,109.87,109.9,5480
23,109.89,109.89,109.89,109.89,100
24,109.92,109.93,109.92,109.93,600
25,109.92,109.94,109.92,109.92,900
26,109.95,109.97,109.91,109.96,3651
27,109.97,109.98,109.94,109.94,1600
28,109.935,109.96,109.9,109.96,1400
29,109.975,109.98,109.92,109.92,3200
30,109.99,109.99,109.97,109.97,1500
31,110,110.03,109.93,110,11272
32,110.01,110.03,109.97,110,3571
33,110.05,110.06,110.01,110.01,2300
34,110.03,110.05,110.03,110.04,5303
35,110.06,110.06,110.02,110.03,1000
36,110.07,110.07,110.06,110.06,2410
37,110.115,110.13,110.1,110.12,2600
38,110.115,110.115,110.11,110.11,817
39,110.14,110.14,110.11,110.13,2519
40,110.11,110.17,110.11,110.17,2000
41,110.08,110.102,110.08,110.1,1500
42,110.02,110.0578,110.02,110.0578,647
43,110.025,110.04,110.01,110.01,1442
44,110.0202,110.03,110.02,110.02,600
45,109.9965,110.015,109.9965,110.015,3135
46,110.06,110.06,110,110,3900
47,110.06,110.09,110.06,110.08,1600
48,110.03,110.06,110.02,110.06,1908
49,110.03,110.04,110.02,110.02,1100
50,109.98,110.0325,109.9725,110.03,1700
51,110.01,110.01,110,110,1781
52,110.1,110.11,110.06,110.06,1100
53,110.05,110.09,110.05,110.09,1100
54,110.06,110.06,110.05,110.05,200
55,110.06,110.06,110.06,110.06,1385
56,110.055,110.1,110.055,110.07,3251
57,110.13,110.13,110.06,110.06,1702
58,110.11,110.11,110.11,110.11,100
59,110.12,110.14,110.12,110.14,500
60,110.14,110.15,110.14,110.15,300
61,110.1538,110.165,110.15,110.16,500
62,110.15,110.18,110.11,110.13,2475
63,110.15,110.17,110.12,110.15,2286
64,110.2,110.2,110.16,110.17,1200
65,110.16,110.21,110.16,110.21,1200
66,110.18,110.18,110.155,110.17,1531
67,110.2,110.2,110.16,110.16,2166
68,110.155,110.2,110.155,110.19,3608
69,110.2,110.22,110.155,110.155,1400
70,110.2,110.23,110.195,110.2,2057
71,110.28,110.28,110.2,110.2,3650
72,110.32,110.32,110.25,110.26,4011
73,110.33,110.33,110.31,110.33,2144
74,110.3,110.32,110.28,110.32,2614
75,110.265,110.3,110.2575,110.29,1671
76,110.27,110.3,110.27,110.28,2816
77,110.28,110.29,110.27,110.289,2050
78,110.27,110.32,110.27,110.2786,4110
79,110.275,110.275,110.26,110.26,300
80,110.29,110.31,110.29,110.31,1401
82,110.32,110.32,110.31,110.32,1281
83,110.36,110.36,110.3,110.31,4300
84,110.39,110.39,110.39,110.39,100
85,110.4,110.4,110.39,110.39,600
86,110.3903,110.41,110.3903,110.41,685
87,110.32,110.42,110.32,110.405,4700
88,110.32,110.3403,110.32,110.32,3250
89,110.32,110.33,110.32,110.33,740
90,110.295,110.35,110.2458,110.3485,2765
91,110.32,110.35,110.3,110.3,2456
92,110.27,110.325,110.27,110.325,1100
93,110.25,110.3,110.24,110.3,2170
94,110.28,110.28,110.25,110.25,2450
95,110.2577,110.28,110.2577,110.28,3325
96,110.28,110.28,110.27,110.27,1900
97,110.25,110.28,110.25,110.28,1300
98,110.2775,110.28,110.27,110.27,800
99,110.276,110.28,110.276,110.28,1417
100,110.28,110.28,110.23,110.28,4364
101,110.28,110.29,110.25,110.29,3300
102,110.29,110.29,110.26,110.26,1000
103,110.28,110.3,110.27,110.3,601
104,110.32,110.32,110.28,110.28,900
105,110.38,110.38,110.31,110.31,1500
106,110.33,110.39,110.33,110.38,3264
107,110.32,110.34,110.32,110.3257,2892
108,110.34,110.36,110.34,110.34,2179
109,110.36,110.36,110.355,110.355,200
110,110.35,110.35,110.33,110.35,1697
111,110.35,110.39,110.35,110.35,2205
112,110.38,110.38,110.35,110.38,1628
113,110.4,110.4,110.375,110.39,1139
114,110.4705,110.4705,110.405,110.405,2940
115,110.51,110.53,110.48,110.48,3422
116,110.56,110.56,110.5,110.51,5503
117,110.6,110.6,110.57,110.57,772
118,110.63,110.63,110.6,110.6,900
119,110.67,110.68,110.66,110.67,2298
120,110.72,110.72,110.655,110.67,4736
122,110.69,110.73,110.68,110.7,3300
123,110.68,110.699,110.67,110.699,1700
124,110.7,110.71,110.68,110.68,700
125,110.65,110.71,110.64,110.71,2600
126,110.61,110.64,110.61,110.64,1300
127,110.5978,110.5978,110.59,110.59,335
128,110.57,110.61,110.57,110.61,3884
129,110.515,110.52,110.5,110.52,5042
130,110.54,110.555,110.51,110.52,8203
131,110.6,110.62,110.55,110.55,2700
132,110.63,110.63,110.5801,110.5801,800
133,110.64,110.65,110.621,110.6395,786
134,110.58,110.65,110.57,110.65,2609
135,110.52,110.57,110.5,110.57,2100
136,110.53,110.53,110.53,110.53,100
137,110.39,110.5,110.39,110.5,3345
138,110.33,110.35,110.33,110.35,900
139,110.345,110.35,110.32,110.35,500
140,110.29,110.37,110.29,110.37,1400
141,110.28,110.29,110.25,110.29,4412
142,110.28,110.29,110.26,110.29,1000
143,110.3,110.3,110.23,110.24,1108
144,110.34,110.34,110.3,110.3,600
145,110.35,110.36,110.35,110.35,1240
146,110.335,110.37,110.335,110.36,2000
147,110.35,110.36,110.34,110.34,700
148,110.35,110.37,110.35,110.37,2300
149,110.35,110.35,110.35,110.35,300
150,110.365,110.38,110.35,110.38,1300
151,110.32,110.35,110.32,110.35,1815
152,110.33,110.35,110.32,110.32,1700
153,110.36,110.38,110.3384,110.35,4896
154,110.39,110.39,110.38,110.38,400
155,110.415,110.42,110.4,110.4,2800
156,110.37,110.42,110.37,110.41,1800
157,110.36,110.36,110.36,110.36,400
158,110.33,110.34,110.32,110.34,900
159,110.27,110.32,110.24,110.32,2931
160,110.31,110.31,110.28,110.28,300
161,110.34,110.34,110.33,110.33,400
162,110.37,110.37,110.34,110.34,500
163,110.38,110.38,110.37,110.37,900
164,110.41,110.41,110.4,110.4,300
165,110.4,110.41,110.39,110.4,2295
166,110.36,110.4,110.36,110.38,1101
167,110.31,110.351,110.28,110.35,4993
168,110.29,110.315,110.29,110.315,500
169,110.32,110.32,110.27,110.28,4060
170,110.35,110.35,110.31,110.33,1400
171,110.35,110.39,110.35,110.36,2512
172,110.34,110.35,110.33,110.35,500
173,110.27,110.31,110.27,110.31,200
174,110.3,110.3,110.29,110.29,1100
175,110.35,110.35,110.33,110.33,400
176,110.36,110.36,110.3308,110.3308,953
177,110.3,110.33,110.3,110.33,500
178,110.35,110.35,110.31,110.31,1500
179,110.36,110.36,110.35,110.35,300
180,110.3,110.32,110.3,110.32,800
181,110.3,110.3,110.3,110.3,200
182,110.35,110.35,110.31,110.32,2400
183,110.35,110.35,110.35,110.35,300
184,110.37,110.37,110.3401,110.3401,300
185,110.37,110.37,110.37,110.37,100
186,110.39,110.39,110.37,110.37,1600
187,110.36,110.385,110.36,110.38,1000
188,110.35,110.35,110.35,110.35,100
189,110.35,110.35,110.31,110.31,900
190,110.375,110.375,110.3643,110.37,2550
191,110.41,110.41,110.38,110.38,1802
192,110.33,110.405,110.33,110.4,1300
194,110.31,110.4,110.31,110.4,900
195,110.33,110.36,110.31,110.31,2450
196,110.38,110.38,110.34,110.34,2300
197,110.4,110.4,110.3824,110.3824,451
198,110.37,110.43,110.37,110.43,1000
199,110.31,110.38,110.31,110.38,2000
200,110.33,110.34,110.3001,110.3199,1221
201,110.34,110.35,110.31,110.31,900
202,110.38,110.38,110.37,110.37,200
203,110.39,110.39,110.37,110.38,1500
204,110.43,110.43,110.4,110.4,1500
205,110.44,110.46,110.43,110.43,1400
206,110.49,110.49,110.48,110.48,600
207,110.52,110.52,110.5,110.5,3506
208,110.52,110.54,110.49,110.53,4753
209,110.52,110.52,110.52,110.52,100
210,110.54,110.56,110.54,110.54,1500
211,110.53,110.55,110.53,110.55,1807
212,110.56,110.56,110.53,110.53,1750
213,110.53,110.57,110.53,110.57,3436
214,110.51,110.52,110.499,110.52,1200
215,110.53,110.55,110.53,110.53,2907
216,110.54,110.54,110.53,110.53,300
217,110.55,110.55,110.55,110.55,100
218,110.59,110.59,110.56,110.56,1675
219,110.63,110.63,110.6,110.6,1259
220,110.63,110.63,110.63,110.63,100
221,110.64,110.66,110.64,110.65,3260
222,110.56,110.63,110.56,110.63,2000
223,110.59,110.59,110.55,110.55,2389
224,110.5832,110.59,110.58,110.59,1000
225,110.59,110.59,110.59,110.59,700
226,110.61,110.635,110.61,110.62,2850
227,110.59,110.62,110.59,110.6,300
228,110.69,110.69,110.58,110.58,7884
229,110.61,110.66,110.58,110.66,4200
230,110.56,110.58,110.55,110.58,1800
231,110.55,110.579,110.55,110.56,2100
232,110.54,110.55,110.54,110.55,400
233,110.53,110.53,110.48,110.53,4460
234,110.57,110.57,110.53,110.53,903
235,110.55,110.565,110.55,110.565,700
236,110.52,110.53,110.5,110.53,900
237,110.5,110.5115,110.47,110.49,1208
238,110.51,110.51,110.49,110.49,529
239,110.495,110.495,110.495,110.495,100
240,110.48,110.53,110.48,110.51,2200
241,110.46,110.46,110.43,110.46,2203
242,110.46,110.48,110.46,110.47,1130
243,110.43,110.44,110.43,110.44,400
244,110.39,110.4,110.39,110.39,500
245,110.4,110.435,110.39,110.39,1500
246,110.36,110.39,110.36,110.38,700
247,110.4,110.4,110.38,110.38,901
248,110.43,110.43,110.4,110.4,1000
249,110.44,110.44,110.4,110.4,900
250,110.49,110.49,110.45,110.45,1200
251,110.468,110.49,110.45,110.49,2082
252,110.41,110.44,110.41,110.44,800
253,110.42,110.42,110.391,110.391,1402
254,110.51,110.51,110.44,110.44,1864
255,110.57,110.59,110.53,110.53,4230
256,110.54,110.57,110.53,110.57,2000
257,110.57,110.57,110.52,110.54,3335
258,110.45,110.54,110.45,110.54,2601
259,110.31,110.4,110.27,110.39,4520
260,110.36,110.36,110.31,110.31,850
261,110.32,110.37,110.32,110.36,1000
262,110.42,110.42,110.3179,110.3179,1300
263,110.41,110.41,110.41,110.41,100
264,110.46,110.46,110.42,110.44,600
266,110.47,110.48,110.47,110.48,900
267,110.44,110.46,110.44,110.46,1400
268,110.45,110.45,110.42,110.44,1309
269,110.44,110.47,110.44,110.47,300
270,110.38,110.43,110.38,110.43,1000
271,110.35,110.4005,110.33,110.38,2528
272,110.34,110.37,110.32,110.37,1600
273,110.33,110.33,110.31,110.33,617
274,110.34,110.39,110.34,110.35,1400
275,110.42,110.46,110.41,110.46,1000
276,110.36,110.4,110.35,110.4,1850
277,110.45,110.45,110.41,110.41,500
278,110.47,110.47,110.47,110.47,200
279,110.46,110.46,110.41,110.45,2000
280,110.49,110.49,110.46,110.47,1887
281,110.52,110.52,110.4849,110.4849,1437
282,110.4915,110.52,110.49,110.52,1400
283,110.51,110.51,110.49,110.49,500
284,110.49,110.53,110.49,110.52,1400
285,110.6,110.6,110.51,110.51,1500
286,110.66,110.66,110.61,110.61,600
287,110.63,110.63,110.62,110.63,1000
288,110.6286,110.65,110.61,110.65,2959
289,110.64,110.64,110.5904,110.62,1653
290,110.62,110.647,110.62,110.6466,846
291,110.66,110.66,110.61,110.61,939
292,110.67,110.67,110.66,110.66,200
293,110.64,110.67,110.64,110.67,1200
294,110.64,110.64,110.63,110.63,600
295,110.66,110.66,110.66,110.66,200
296,110.59,110.64,110.56,110.64,5200
297,110.62,110.64,110.585,110.585,3117
298,110.66,110.67,110.64,110.64,1100
299,110.66,110.68,110.64,110.66,2300
300,110.59,110.65,110.58,110.65,2300
301,110.615,110.65,110.59,110.61,2509
302,110.65,110.67,110.62,110.63,5200
303,110.635,110.64,110.635,110.64,200
304,110.6,110.66,110.6,110.65,1611
305,110.6311,110.6311,110.6,110.62,911
306,110.55,110.6,110.55,110.6,1642
307,110.57,110.57,110.57,110.57,200
308,110.56,110.57,110.56,110.57,700
309,110.56,110.56,110.5301,110.5301,1118
310,110.59,110.59,110.57,110.57,1000
311,110.57,110.58,110.56,110.57,1800
312,110.575,110.58,110.53,110.57,3500
313,110.6,110.6,110.575,110.58,700
314,110.67,110.67,110.62,110.62,2000
315,110.68,110.68,110.68,110.68,200
316,110.67,110.67,110.67,110.67,100
317,110.68,110.68,110.67,110.67,800
318,110.71,110.71,110.664,110.68,5555
319,110.69,110.71,110.68,110.71,2879
320,110.6801,110.69,110.68,110.68,2208
321,110.68,110.71,110.68,110.71,400
322,110.67,110.72,110.67,110.6968,3479
323,110.68,110.68,110.68,110.68,500
324,110.6881,110.7,110.68,110.68,1083
325,110.68,110.71,110.68,110.71,600
326,110.68,110.68,110.67,110.67,200
327,110.63,110.66,110.62,110.66,2900
328,110.62,110.63,110.62,110.63,1000
329,110.63,110.63,110.62,110.63,400
330,110.54,110.62,110.54,110.62,2200
331,110.54,110.55,110.54,110.54,300
332,110.5786,110.58,110.535,110.535,1630
333,110.63,110.63,110.59,110.59,600
334,110.64,110.65,110.6068,110.61,2300
335,110.65,110.66,110.64,110.64,1200
336,110.66,110.66,110.63,110.645,1400
337,110.72,110.72,110.67,110.67,1900
338,110.7,110.72,110.69,110.71,2290
339,110.67,110.6925,110.66,110.69,1400
340,110.7,110.7,110.68,110.68,3100
341,110.66,110.71,110.66,110.71,1700
342,110.73,110.73,110.67,110.68,4000
343,110.7225,110.76,110.72,110.73,5499
344,110.74,110.74,110.74,110.74,100
345,110.73,110.73,110.73,110.73,1000
346,110.735,110.74,110.69,110.74,3406
347,110.72,110.75,110.72,110.75,1408
348,110.74,110.74,110.7168,110.719,1594
349,110.77,110.77,110.71,110.74,4200
350,110.7306,110.76,110.7306,110.76,657
351,110.74,110.74,110.71,110.72,1900
352,110.72,110.75,110.7,110.75,1600
353,110.7,110.72,110.685,110.69,2900
354,110.71,110.71,110.7,110.7,1890
355,110.72,110.72,110.7001,110.7001,1459
356,110.7133,110.73,110.7133,110.73,3464
357,110.74,110.74,110.72,110.72,1600
358,110.71,110.735,110.69,110.73,8146
360,110.67,110.71,110.66,110.71,2200
361,110.64,110.675,110.64,110.675,2400
362,110.67,110.68,110.65,110.65,4013
363,110.61,110.66,110.6,110.66,4875
364,110.59,110.6,110.58,110.6,1400
365,110.6,110.6,110.58,110.58,1797
366,110.555,110.6,110.55,110.6,2157
367,110.53,110.555,110.52,110.555,4517
368,110.48,110.54,110.48,110.53,3500
369,110.49,110.5,110.465,110.465,1850
370,110.45,110.5,110.45,110.5,3304
371,110.46,110.47,110.44,110.45,5700
372,110.475,110.49,110.445,110.445,3500
373,110.48,110.49,110.475,110.475,3231
374,110.49,110.5,110.48,110.48,3899
375,110.45,110.49,110.43,110.49,7165
376,110.38,110.425,110.37,110.425,3850
377,110.4,110.4,110.37,110.39,5390
378,110.45,110.45,110.4,110.4,8836
379,110.46,110.46,110.4339,110.44,3769
380,110.435,110.46,110.405,110.46,12190
381,110.41,110.445,110.41,110.43,10880
382,110.44,110.44,110.4,110.415,9359
383,110.49,110.5,110.435,110.435,16193
384,110.485,110.5,110.48,110.49,16335
385,110.52,110.52,110.475,110.49,11642
386,110.52,110.57,110.51,110.51,35013
387,110.53,110.53,110.51,110.515,12508
388,110.55,110.55,110.52,110.525,20769
389,110.49,110.58,110.44,110.55,30320
390,110.48,110.555,110.47,110.49,30958
