EOG,EOG Resources,Energy,3,Oil & Gas Exploration & Production,50249533377,3235541
a1502803800,87.75,87.75,87.75,87.75,30978
1,87.91,87.91,87.78,87.8174,325
2,87.535,87.81,87.46,87.81,11211
3,87.67,87.73,87.55,87.55,5464
4,87.77,87.77,87.53,87.67,2936
5,87.685,87.71,87.66,87.71,737
6,87.82,87.87,87.64,87.71,7114
7,87.77,87.77,87.69,87.74,2307
8,87.73,87.77,87.705,87.76,1200
9,87.66,87.78,87.66,87.71,4265
10,87.65,87.7,87.62,87.66,3430
11,87.5,87.62,87.49,87.61,7809
12,87.47,87.49,87.42,87.48,7223
13,87.49,87.52,87.44,87.5,2600
14,87.32,87.46,87.25,87.46,21408
15,87.2001,87.39,87.2001,87.34,5700
16,87.2,87.24,87.09,87.24,5160
17,87.18,87.3,87.18,87.22,2684
18,87.27,87.29,87.15,87.16,3400
19,87.15,87.24,87.15,87.2325,1550
20,87.205,87.23,87.15,87.15,4400
21,87.2,87.21,87.13,87.21,9394
22,87.14,87.22,87.1001,87.2038,5309
23,87.15,87.19,87.12,87.16,3524
24,87.15,87.16,87.1,87.13,4800
25,87.16,87.16,87.1085,87.12,8869
26,87.16,87.19,87.12,87.15,9464
27,87.11,87.16,87.11,87.15,4465
28,87.25,87.25,87.11,87.11,4100
29,87.21,87.29,87.21,87.25,2300
30,87.16,87.21,87.15,87.2,9542
31,87.11,87.16,87.09,87.14,20814
32,87.035,87.14,87.03,87.13,24631
33,87.06,87.11,87.03,87.035,14952
34,87.12,87.14,87.05,87.05,18600
35,87.09,87.18,87.08,87.115,13070
36,86.885,87.0975,86.88,87.08,32987
37,86.85,86.9,86.85,86.8875,6624
38,86.8041,86.86,86.8,86.855,18140
39,86.66,86.8,86.66,86.79,22208
40,86.7,86.71,86.63,86.675,24257
41,86.715,86.77,86.69,86.69,21715
42,86.55,86.72,86.55,86.71,25421
43,86.545,86.6,86.54,86.58,17151
44,86.58,86.63,86.53,86.545,17489
45,86.52,86.61,86.5,86.585,20446
46,86.54,86.54,86.48,86.54,37299
47,86.52,86.54,86.51,86.54,6800
48,86.49,86.53,86.48,86.51,22046
49,86.455,86.49,86.43,86.48,7796
50,86.51,86.51,86.44,86.4403,27943
51,86.54,86.5451,86.46,86.5,26267
52,86.53,86.54,86.5,86.52,13086
53,86.47,86.54,86.47,86.53,8210
54,86.405,86.47,86.405,86.46,6600
55,86.34,86.405,86.33,86.4,11523
56,86.42,86.48,86.34,86.35,20904
57,86.54,86.59,86.44,86.44,9618
58,86.51,86.57,86.51,86.55,7700
59,86.54,86.58,86.51,86.51,2000
60,86.575,86.6,86.54,86.55,14397
61,86.585,86.62,86.56,86.57,11421
62,86.675,86.69,86.55,86.57,16511
63,86.63,86.68,86.6,86.68,10592
64,86.54,86.63,86.54,86.63,6556
65,86.56,86.58,86.54,86.55,7396
66,86.67,86.67,86.56,86.56,11654
67,86.72,86.72,86.68,86.68,7494
68,86.75,86.76,86.72,86.72,7666
69,86.66,86.78,86.66,86.76,12490
70,86.66,86.66,86.62,86.65,6000
71,86.61,86.67,86.61,86.67,5915
72,86.65,86.65,86.61,86.61,11100
73,86.61,86.6412,86.6,86.64,5532
74,86.57,86.64,86.57,86.62,11645
75,86.51,86.55,86.51,86.55,5287
76,86.57,86.6,86.5,86.51,13896
77,86.45,86.5859,86.45,86.56,7416
78,86.46,86.48,86.43,86.43,6000
79,86.39,86.46,86.39,86.45,4866
80,86.29,86.39,86.29,86.39,6702
81,86.3237,86.33,86.25,86.27,7071
82,86.33,86.35,86.31,86.311,12193
83,86.35,86.37,86.33,86.33,5784
84,86.42,86.44,86.35,86.35,6700
85,86.45,86.45,86.41,86.41,6452
86,86.47,86.48,86.42,86.45,13692
87,86.505,86.55,86.46,86.47,9200
88,86.48,86.52,86.46,86.49,3356
89,86.46,86.5,86.41,86.46,12735
90,86.396,86.45,86.396,86.44,6800
91,86.57,86.57,86.365,86.39,18941
92,86.69,86.74,86.56,86.56,13420
93,86.73,86.73,86.69,86.7,8962
94,86.9,86.9,86.725,86.73,10392
95,86.88,86.92,86.85,86.9,9743
96,86.91,86.91,86.86,86.86,2600
97,86.84,86.89,86.84,86.89,6340
98,86.88,86.88,86.84,86.84,8600
99,86.85,86.88,86.81,86.88,14478
100,86.82,86.84,86.78,86.84,6856
101,86.74,86.82,86.73,86.82,9071
102,86.69,86.76,86.69,86.75,5836
103,86.77,86.77,86.7,86.7,3542
104,86.77,86.77,86.73,86.77,3199
105,86.81,86.81,86.75,86.75,4750
106,86.72,86.81,86.72,86.8,4754
107,86.7,86.73,86.69,86.71,4737
108,86.66,86.72,86.66,86.7168,1864
109,86.66,86.71,86.66,86.6693,5627
110,86.65,86.68,86.65,86.67,2145
111,86.64,86.665,86.62,86.665,2500
112,86.65,86.67,86.64,86.65,3100
113,86.76,86.76,86.64,86.65,13427
114,86.75,86.8,86.75,86.79,6500
115,86.71,86.7601,86.7,86.76,9561
116,86.81,86.81,86.71,86.73,6500
117,86.85,86.88,86.79,86.81,8150
118,86.855,86.87,86.83,86.85,4948
119,86.9,86.93,86.855,86.855,5055
120,86.78,86.88,86.78,86.86,4070
121,86.72,86.76,86.72,86.76,2157
122,86.6,86.735,86.6,86.72,2735
123,86.62,86.7,86.59,86.6,4193
124,86.6,86.66,86.6,86.62,2973
125,86.59,86.61,86.57,86.59,4700
126,86.55,86.61,86.55,86.6,4250
127,86.57,86.58,86.54,86.55,3470
128,86.535,86.575,86.52,86.575,4978
129,86.68,86.68,86.53,86.53,12427
130,86.63,86.65,86.615,86.64,2891
131,86.63,86.65,86.61,86.65,1600
132,86.58,86.66,86.58,86.65,5908
133,86.58,86.6,86.58,86.58,4370
134,86.52,86.57,86.51,86.57,2400
135,86.56,86.57,86.52,86.54,6260
136,86.56,86.57,86.545,86.55,2799
137,86.56,86.58,86.545,86.545,4000
138,86.6,86.6,86.56,86.57,5495
139,86.56,86.6,86.54,86.6,4601
140,86.555,86.59,86.55,86.57,5600
141,86.5625,86.59,86.56,86.57,3433
142,86.61,86.61,86.565,86.57,5501
143,86.5987,86.63,86.59,86.63,3574
144,86.54,86.61,86.54,86.61,6879
145,86.62,86.62,86.55,86.55,9479
146,86.65,86.67,86.61,86.625,5790
147,86.62,86.66,86.62,86.66,2262
148,86.57,86.62,86.57,86.62,3404
149,86.6,86.61,86.55,86.57,5077
150,86.6,86.62,86.57,86.6,5971
151,86.55,86.59,86.55,86.59,824
152,86.65,86.65,86.55,86.55,9350
153,86.59,86.64,86.59,86.64,9125
154,86.535,86.59,86.53,86.59,6374
155,86.54,86.58,86.53,86.56,3100
156,86.5389,86.55,86.53,86.54,1000
157,86.59,86.59,86.52,86.52,3600
158,86.65,86.65,86.57,86.57,5363
159,86.63,86.65,86.63,86.65,1000
160,86.67,86.67,86.64,86.64,700
161,86.635,86.6437,86.6,86.64,2404
162,86.65,86.65,86.619,86.63,4094
163,86.65,86.65,86.61,86.63,2438
164,86.7,86.75,86.68,86.68,3900
165,86.66,86.69,86.66,86.6827,550
166,86.73,86.75,86.7,86.7,3000
167,86.78,86.78,86.75,86.76,1100
168,86.78,86.79,86.74,86.77,2250
169,86.8,86.8001,86.77,86.78,4474
170,86.8175,86.825,86.8,86.81,2600
171,86.78,86.82,86.78,86.81,900
172,86.78,86.79,86.775,86.78,2300
173,86.83,86.83,86.7801,86.8,11519
174,86.82,86.83,86.815,86.83,2115
175,86.82,86.82,86.79,86.81,10517
176,86.81,86.82,86.79,86.82,961
177,86.73,86.81,86.73,86.7801,4545
178,86.67,86.7459,86.67,86.7459,9864
179,86.76,86.76,86.685,86.7,3708
180,86.73,86.76,86.73,86.75,2300
181,86.72,86.72,86.72,86.72,200
182,86.67,86.71,86.65,86.71,1942
183,86.67,86.69,86.6576,86.67,4000
184,86.68,86.68,86.65,86.65,800
185,86.67,86.7,86.67,86.68,3100
186,86.6,86.65,86.6,86.65,4798
187,86.56,86.62,86.56,86.6,1500
188,86.53,86.561,86.53,86.561,2000
189,86.57,86.58,86.53,86.54,6242
190,86.58,86.59,86.57,86.57,1700
191,86.56,86.58,86.54,86.575,3500
192,86.55,86.57,86.55,86.57,1500
193,86.5714,86.58,86.56,86.56,3250
194,86.55,86.56,86.55,86.56,900
195,86.525,86.55,86.52,86.54,2300
196,86.5,86.5364,86.5,86.5364,1790
197,86.48,86.5,86.48,86.495,3047
198,86.46,86.47,86.43,86.47,3265
199,86.46,86.49,86.46,86.47,1300
200,86.45,86.46,86.45,86.46,400
201,86.47,86.47,86.41,86.42,9053
203,86.46,86.47,86.46,86.47,2300
204,86.51,86.51,86.46,86.47,2170
205,86.51,86.51,86.48,86.49,2300
206,86.4999,86.4999,86.48,86.49,1517
207,86.54,86.54,86.485,86.5,3300
208,86.55,86.55,86.52,86.54,3289
209,86.55,86.55,86.55,86.55,400
210,86.52,86.54,86.52,86.54,1300
211,86.54,86.54,86.5202,86.5202,1795
212,86.52,86.56,86.52,86.56,700
213,86.5,86.51,86.47,86.51,3502
214,86.53,86.55,86.5,86.5,5223
215,86.55,86.57,86.54,86.54,3411
216,86.54,86.55,86.52,86.55,1000
217,86.6,86.6,86.55,86.55,1800
218,86.58,86.59,86.58,86.59,1100
219,86.61,86.61,86.58,86.58,1200
220,86.68,86.68,86.61,86.61,5421
221,86.75,86.78,86.7,86.7,4717
222,86.81,86.81,86.7503,86.7503,4200
223,86.82,86.85,86.811,86.82,1300
224,86.8,86.83,86.79,86.82,3400
225,86.78,86.81,86.77,86.81,1802
226,86.78,86.79,86.76,86.76,1300
227,86.87,86.87,86.8,86.8,5827
228,86.86,86.86,86.851,86.851,1000
229,86.861,86.89,86.861,86.87,1719
230,86.896,86.896,86.896,86.896,200
231,86.92,86.92,86.861,86.861,3105
232,86.92,86.93,86.87,86.93,2187
233,86.88,86.93,86.88,86.93,1425
235,86.79,86.85,86.79,86.85,3047
236,86.84,86.85,86.78,86.78,1900
237,86.88,86.89,86.82,86.85,3970
238,86.82,86.89,86.82,86.89,8009
239,86.83,86.85,86.82,86.83,2400
240,86.8265,86.8265,86.8265,86.8265,138
241,86.85,86.86,86.79,86.81,5569
242,86.905,86.905,86.83,86.83,4701
243,86.89,86.91,86.88,86.88,2455
244,86.87,86.91,86.87,86.87,700
245,86.96,86.96,86.9,86.91,2445
246,86.94,87,86.94,86.97,2900
248,86.98,86.99,86.94,86.94,3550
249,86.97,86.97,86.96,86.96,600
250,86.88,86.9672,86.88,86.9672,2200
251,86.9347,86.95,86.9,86.9,3639
252,86.92,86.94,86.91,86.94,1500
253,86.92,86.93,86.9,86.91,1000
254,86.87,86.9,86.87,86.9,700
255,86.91,86.91,86.89,86.9,2304
256,86.85,86.88,86.84,86.88,1600
257,86.92,86.92,86.845,86.85,2948
258,86.92,86.92,86.9,86.9,2778
259,86.94,86.94,86.91,86.92,3188
260,86.94,86.94,86.9,86.94,2599
261,86.94,86.9795,86.94,86.95,2750
262,86.95,86.97,86.93,86.93,1700
263,86.96,86.97,86.95,86.97,1621
264,86.98,86.98,86.98,86.98,700
265,87.0134,87.04,86.97,86.99,5620
266,87.0156,87.025,87.01,87.01,542
267,87.0599,87.0599,86.99,87.02,3191
268,87.03,87.03,87.03,87.03,300
270,86.9,87,86.9,87,3246
271,86.96,86.97,86.89,86.9,6718
272,86.99,87,86.99,87,916
273,87.02,87.02,86.97,86.98,3667
274,87,87.03,87,87.0094,1575
275,87.04,87.06,86.99,86.99,6391
276,86.99,87.02,86.99,87.02,773
277,86.96,86.98,86.96,86.98,2000
278,86.98,86.99,86.97,86.97,2798
279,86.99,87.02,86.96,86.99,3572
280,86.99,87.02,86.99,87.02,1579
281,87.05,87.05,87.01,87.01,3790
282,87.04,87.06,87.04,87.06,1400
283,87.04,87.05,87.02,87.05,1015
284,86.98,87.03,86.98,87.03,1200
285,87.01,87.01,86.97,86.985,2432
286,86.97,87.02,86.97,87.02,1691
287,86.93,86.95,86.93,86.95,1300
288,86.94,86.95,86.93,86.93,3335
289,86.95,86.97,86.94,86.94,2415
290,86.97,86.98,86.96,86.98,1700
291,86.93,86.96,86.92,86.96,2070
292,86.93,86.9427,86.91,86.921,15999
293,86.89,86.92,86.86,86.92,5264
294,86.88,86.91,86.88,86.91,6216
295,86.9,86.91,86.86,86.91,4966
296,86.94,86.95,86.9,86.91,7580
297,86.9,86.95,86.9,86.95,4760
298,86.81,86.89,86.81,86.89,3500
299,86.84,86.87,86.83,86.83,1736
300,86.88,86.89,86.86,86.86,2550
301,86.9,86.9,86.85,86.85,3440
302,86.9,86.9,86.88,86.9,1210
303,86.91,86.92,86.9,86.91,3402
304,86.91,86.91,86.9,86.91,1000
305,86.9101,86.93,86.905,86.91,2000
306,86.91,86.91,86.9,86.91,1400
307,86.915,86.93,86.9,86.9,4512
308,86.91,86.94,86.91,86.92,2600
309,86.925,86.93,86.91,86.91,1600
310,86.91,86.925,86.91,86.925,381
311,86.9,86.93,86.89,86.9,4549
312,86.92,86.92,86.9,86.91,2996
313,86.91,86.92,86.9,86.9,700
314,86.9,86.92,86.9,86.9,3851
315,86.91,86.92,86.89,86.89,2850
316,86.88,86.89,86.88,86.89,611
317,86.9,86.9,86.885,86.89,2500
318,86.92,86.92,86.9,86.9,3200
319,86.89,86.91,86.87,86.91,1212
320,86.96,86.96,86.88,86.88,4434
321,86.98,86.99,86.94,86.94,2600
322,86.975,86.98,86.96,86.97,4500
323,86.97,86.99,86.97,86.98,3900
324,86.97,86.98,86.97,86.97,1200
325,86.98,86.99,86.97,86.98,1400
326,86.96,86.97,86.94,86.97,2100
327,86.95,86.97,86.95,86.97,1800
328,86.95,86.96,86.94,86.949,2733
329,86.97,86.97,86.93,86.93,2400
330,86.95,86.97,86.95,86.97,2600
331,87,87.01,86.96,86.96,5562
332,87,87,86.9701,86.99,2087
333,87.05,87.05,87,87.01,7603
334,87.025,87.05,87.02,87.05,1817
335,87.025,87.04,87.02,87.03,2430
336,87.06,87.07,87.0275,87.03,4066
337,87.04,87.06,87.0101,87.06,3337
338,87.03,87.03,87.01,87.025,1300
339,87.04,87.04,87,87.03,4912
340,86.975,87.02,86.97,87.01,3900
341,86.96,86.99,86.96,86.97,5000
342,86.95,86.97,86.95,86.97,600
343,87.02,87.02,86.97,86.97,4630
344,86.98,87.02,86.97,87.02,4156
345,86.9819,86.9819,86.97,86.97,1100
346,87,87.01,86.99,86.99,2487
347,87,87,86.99,87,1400
348,87.01,87.03,86.99,87,3100
349,87.02,87.02,87.01,87.01,700
350,87,87.01,86.99,87.01,2600
351,87.03,87.03,87.0017,87.01,2946
352,87.01,87.03,87.01,87.03,5938
353,87.01,87.015,87,87.01,3604
354,86.99,87.01,86.98,87.01,3679
355,86.98,87.02,86.98,86.98,7723
356,87.05,87.05,86.9999,86.9999,6306
357,87.12,87.12,87.035,87.035,4802
358,87.0999,87.11,87.06,87.1,14403
359,87.07,87.1,87.06,87.08,4900
360,87.07,87.08,87.06,87.065,4797
361,87.0999,87.1,87.06,87.07,4073
362,87.1,87.1,87.09,87.1,5601
363,87.12,87.15,87.0924,87.1,9089
364,87.14,87.15,87.1,87.12,6621
365,87.17,87.17,87.145,87.15,3020
366,87.16,87.17,87.14,87.17,6446
367,87.16,87.22,87.14,87.17,6024
368,87.16,87.19,87.16,87.17,2670
369,87.15,87.17,87.1487,87.15,2569
370,87.07,87.15,87.07,87.14,6080
371,87.05,87.07,87.03,87.07,7218
372,87.01,87.07,87.01,87.045,8581
373,87.04,87.04,86.98,87,7545
374,87.08,87.08,87.04,87.06,13089
375,87.07,87.095,87.065,87.095,25102
376,87.0901,87.11,87.055,87.08,9558
377,87.15,87.15,87.07,87.09,7744
378,87.18,87.2,87.13,87.15,12914
379,87.175,87.23,87.17,87.18,11906
380,87.19,87.19,87.16,87.17,9698
381,87.27,87.28,87.19,87.19,10634
382,87.265,87.27,87.25,87.26,8772
383,87.23,87.26,87.23,87.26,10165
384,87.23,87.25,87.22,87.24,12791
385,87.27,87.29,87.21,87.235,22656
386,87.25,87.27,87.25,87.27,27768
387,87.195,87.255,87.17,87.25,33241
388,87.1,87.2,87.09,87.19,29526
389,87.07,87.105,87.07,87.09,37450
390,87.05,87.08,87,87.07,92579
