PPG,PPG Industries,Materials,8,Specialty Chemicals,26402032988,1474536
a1502803800,102.6,102.6,102.6,102.6,13343
1,102.725,102.82,102.725,102.81,600
2,102.96,103.04,102.66,102.66,3836
3,102.99,103.21,102.94,103.02,3300
4,102.8,103.01,102.8,103.01,2450
5,102.95,102.99,102.85,102.85,2100
6,102.8,102.93,102.8,102.93,1343
7,102.91,102.91,102.745,102.757,1315
8,102.95,102.95,102.87,102.88,800
9,102.88,102.92,102.88,102.92,400
10,102.84,102.87,102.84,102.87,402
11,102.67,102.845,102.65,102.845,5144
12,102.64,102.74,102.61,102.68,2800
13,102.62,102.76,102.62,102.69,2938
14,102.52,102.63,102.52,102.63,1600
16,102.58,102.63,102.54,102.57,4900
17,102.56,102.56,102.54,102.55,600
18,102.57,102.7,102.56,102.56,4358
19,102.56,102.57,102.55,102.56,2759
20,102.54,102.58,102.52,102.55,3526
21,102.56,102.58,102.525,102.54,2000
22,102.62,102.62,102.6,102.6,700
23,102.645,102.65,102.63,102.65,2500
24,102.61,102.645,102.59,102.645,1300
25,102.59,102.63,102.59,102.63,1671
26,102.55,102.62,102.55,102.59,2400
27,102.65,102.65,102.58,102.58,2179
28,102.67,102.67,102.67,102.67,100
29,102.63,102.68,102.62,102.68,3300
30,102.69,102.69,102.65,102.675,1100
31,102.7,102.7,102.69,102.69,600
32,102.66,102.69,102.64,102.69,3402
33,102.67,102.69,102.655,102.655,1802
34,102.68,102.73,102.66,102.6604,4983
35,102.62,102.67,102.62,102.67,1057
36,102.58,102.62,102.58,102.62,400
37,102.56,102.6,102.55,102.6,900
38,102.57,102.6,102.55,102.55,2800
39,102.52,102.58,102.52,102.57,2500
40,102.46,102.53,102.46,102.51,1700
41,102.38,102.45,102.35,102.45,1000
42,102.36,102.36,102.36,102.36,200
43,102.44,102.44,102.39,102.39,3570
44,102.37,102.41,102.37,102.41,1786
45,102.39,102.4,102.35,102.36,2201
46,102.41,102.44,102.39,102.39,2259
47,102.37,102.41,102.35,102.41,4159
49,102.33,102.39,102.33,102.39,991
50,102.36,102.36,102.3,102.3,2344
51,102.42,102.42,102.37,102.37,3460
52,102.27,102.39,102.27,102.38,9798
53,102.31,102.31,102.25,102.27,1302
55,102.29,102.32,102.27,102.27,2270
56,102.38,102.38,102.32,102.32,1503
57,102.41,102.41,102.37,102.39,2078
58,102.4,102.4,102.39,102.39,700
59,102.4,102.4,102.37,102.37,700
61,102.486,102.486,102.42,102.42,3310
62,102.51,102.52,102.45,102.45,3994
63,102.4,102.54,102.4,102.51,10057
64,102.42,102.42,102.42,102.42,1450
65,102.43,102.4306,102.38,102.425,2937
66,102.46,102.46,102.42,102.42,1656
67,102.46,102.47,102.46,102.47,758
68,102.4759,102.48,102.46,102.46,900
69,102.45,102.47,102.44,102.47,1900
70,102.49,102.49,102.44,102.44,2013
71,102.46,102.5,102.46,102.48,3285
72,102.5,102.5,102.46,102.46,1308
73,102.5,102.5,102.46,102.48,3837
74,102.49,102.52,102.49,102.51,2395
75,102.45,102.495,102.45,102.495,1400
76,102.46,102.48,102.45,102.45,2000
77,102.47,102.49,102.47,102.48,1139
79,102.52,102.52,102.47,102.47,3456
80,102.5425,102.55,102.51,102.53,4212
81,102.49,102.53,102.49,102.53,1600
82,102.5,102.5,102.48,102.48,1800
83,102.52,102.52,102.51,102.51,600
84,102.49,102.52,102.49,102.52,1500
85,102.5,102.5,102.49,102.49,600
86,102.52,102.52,102.52,102.52,400
87,102.59,102.59,102.52,102.52,3656
88,102.5501,102.57,102.55,102.57,1700
89,102.55,102.56,102.55,102.55,800
90,102.5,102.53,102.5,102.53,1300
91,102.52,102.52,102.46,102.48,2924
92,102.54,102.54,102.54,102.54,100
93,102.49,102.52,102.48,102.52,1553
94,102.5,102.5,102.5,102.5,200
95,102.49,102.51,102.49,102.49,1300
96,102.5532,102.5532,102.51,102.52,1699
97,102.55,102.55,102.51,102.54,2500
98,102.57,102.57,102.56,102.56,700
99,102.58,102.61,102.58,102.58,300
100,102.54,102.6,102.54,102.5976,2450
101,102.5125,102.54,102.51,102.54,1700
102,102.52,102.54,102.51,102.51,2570
103,102.45,102.5,102.45,102.5,800
104,102.445,102.46,102.42,102.46,880
105,102.48,102.48,102.46,102.46,700
106,102.5,102.5,102.48,102.48,1050
107,102.53,102.53,102.5,102.5,3982
108,102.51,102.54,102.51,102.54,1349
109,102.52,102.52,102.5,102.5,1192
110,102.53,102.53,102.52,102.5232,1663
111,102.47,102.535,102.47,102.52,14530
112,102.465,102.465,102.46,102.46,600
113,102.53,102.53,102.48,102.48,3420
114,102.57,102.57,102.54,102.54,989
115,102.54,102.56,102.54,102.56,4865
116,102.5491,102.5491,102.53,102.53,658
117,102.58,102.58,102.54,102.545,2000
118,102.6,102.6,102.59,102.59,601
119,102.66,102.68,102.61,102.61,3500
120,102.68,102.6968,102.67,102.67,3084
121,102.68,102.6802,102.68,102.68,1110
122,102.76,102.76,102.69,102.69,1300
123,102.76,102.79,102.76,102.79,1323
124,102.79,102.79,102.75,102.76,2626
125,102.82,102.84,102.77,102.78,3139
126,102.825,102.85,102.82,102.84,3043
127,102.82,102.83,102.82,102.82,900
128,102.83,102.83,102.83,102.83,1400
129,102.83,102.83,102.83,102.83,300
130,102.85,102.85,102.83,102.83,2995
131,102.9,102.92,102.85,102.86,8503
132,102.88,102.9,102.88,102.89,2200
133,102.87,102.88,102.87,102.88,726
134,102.87,102.97,102.83,102.86,12388
135,102.7,102.87,102.64,102.87,13042
136,102.7115,102.7115,102.7115,102.7115,450
137,102.62,102.6999,102.62,102.68,1981
138,102.61,102.635,102.61,102.635,800
139,102.61,102.61,102.58,102.59,1154
140,102.63,102.65,102.61,102.61,698
141,102.64,102.65,102.64,102.65,200
142,102.64,102.65,102.64,102.645,500
143,102.62,102.63,102.6,102.63,881
144,102.64,102.67,102.63,102.63,1496
146,102.67,102.68,102.64,102.64,2339
147,102.69,102.69,102.68,102.68,300
148,102.7,102.71,102.69,102.69,1000
149,102.68,102.7,102.67,102.7,1100
150,102.65,102.67,102.64,102.67,1900
151,102.64,102.65,102.64,102.65,600
152,102.65,102.65,102.61,102.64,2592
154,102.65,102.66,102.65,102.66,893
155,102.68,102.68,102.64,102.65,2101
156,102.64,102.6755,102.64,102.6755,1450
157,102.64,102.64,102.64,102.64,400
158,102.67,102.67,102.64,102.64,1533
159,102.75,102.7769,102.68,102.68,2738
160,102.7347,102.75,102.7347,102.75,805
161,102.76,102.77,102.75,102.75,1101
162,102.7,102.75,102.7,102.75,3600
163,102.72,102.74,102.72,102.72,1527
164,102.73,102.75,102.73,102.74,600
165,102.75,102.75,102.74,102.74,700
166,102.74,102.78,102.74,102.7468,1250
167,102.75,102.75,102.75,102.75,500
168,102.75,102.77,102.75,102.76,2115
169,102.76,102.76,102.76,102.76,200
170,102.77,102.77,102.77,102.77,100
171,102.76,102.765,102.76,102.76,700
172,102.76,102.76,102.76,102.76,315
173,102.77,102.77,102.75,102.75,901
174,102.7596,102.7596,102.7596,102.7596,155
175,102.73,102.77,102.73,102.77,1299
176,102.711,102.76,102.711,102.73,1951
177,102.73,102.73,102.7,102.71,1291
178,102.69,102.69,102.69,102.69,212
179,102.69,102.72,102.69,102.69,1842
180,102.71,102.71,102.71,102.71,100
181,102.72,102.72,102.7064,102.7064,212
182,102.68,102.7,102.63,102.7,3785
183,102.7,102.7,102.68,102.68,1525
184,102.73,102.73,102.6932,102.7,600
185,102.71,102.71,102.7,102.7,799
186,102.67,102.7032,102.67,102.7032,1303
187,102.66,102.67,102.62,102.65,2401
188,102.67,102.67,102.66,102.66,800
189,102.69,102.72,102.675,102.675,1750
191,102.7,102.7,102.7,102.7,412
192,102.69,102.7,102.69,102.7,200
193,102.69,102.69,102.69,102.69,200
194,102.68,102.7,102.67,102.68,2398
195,102.68,102.68,102.68,102.68,742
196,102.68,102.69,102.67,102.675,1984
198,102.635,102.67,102.63,102.67,1264
199,102.68,102.68,102.63,102.63,3010
200,102.6822,102.6822,102.6822,102.6822,300
201,102.67,102.67,102.67,102.67,100
202,102.68,102.68,102.67,102.67,2499
203,102.71,102.71,102.68,102.68,900
205,102.7,102.71,102.7,102.71,800
206,102.705,102.71,102.7,102.7,1205
207,102.7,102.71,102.7,102.705,600
208,102.7143,102.72,102.7,102.7,1705
209,102.7,102.72,102.7,102.71,1871
210,102.72,102.73,102.71,102.71,2200
211,102.7,102.72,102.7,102.72,1300
212,102.64,102.7,102.64,102.7,2852
213,102.56,102.64,102.56,102.64,3713
214,102.5084,102.56,102.5084,102.53,3865
215,102.56,102.56,102.52,102.52,3251
216,102.56,102.57,102.56,102.56,2100
217,102.59,102.59,102.56,102.56,1051
218,102.57,102.61,102.57,102.6,3200
219,102.6,102.61,102.57,102.57,2300
220,102.59,102.6,102.59,102.6,400
221,102.62,102.62,102.6,102.6,2500
222,102.6,102.6,102.59,102.6,550
223,102.58,102.58,102.58,102.58,200
224,102.58,102.61,102.58,102.59,1301
225,102.59,102.59,102.59,102.59,100
226,102.62,102.62,102.6,102.6,1500
227,102.63,102.63,102.61,102.62,2200
228,102.63,102.64,102.62,102.63,1149
229,102.63,102.66,102.63,102.66,1600
230,102.63,102.63,102.62,102.62,417
231,102.62,102.63,102.62,102.62,700
233,102.61,102.66,102.61,102.63,3874
234,102.6,102.61,102.6,102.61,300
235,102.64,102.64,102.62,102.62,1009
236,102.57,102.63,102.57,102.62,2407
237,102.56,102.57,102.56,102.56,1299
238,102.5799,102.5799,102.5599,102.56,1800
239,102.565,102.605,102.565,102.58,1753
240,102.565,102.565,102.565,102.565,100
241,102.59,102.6,102.59,102.59,2424
242,102.5925,102.6,102.59,102.6,900
243,102.6,102.6,102.59,102.59,200
244,102.62,102.64,102.6,102.61,2500
245,102.6,102.62,102.59,102.62,1600
246,102.6,102.6,102.6,102.6,200
247,102.6032,102.6032,102.6032,102.6032,100
248,102.64,102.65,102.605,102.605,2201
249,102.66,102.66,102.64,102.64,1300
250,102.6303,102.66,102.6303,102.66,200
251,102.66,102.66,102.64,102.645,1601
252,102.6501,102.67,102.65,102.67,900
253,102.66,102.66,102.65,102.66,1400
254,102.62,102.6525,102.62,102.65,1760
255,102.62,102.63,102.61,102.63,1700
256,102.6,102.625,102.59,102.62,2000
257,102.62,102.63,102.59,102.59,1700
258,102.61,102.63,102.61,102.63,1620
259,102.61,102.63,102.61,102.63,600
260,102.67,102.67,102.63,102.63,400
262,102.6,102.63,102.6,102.63,1000
264,102.59,102.59,102.59,102.59,400
265,102.58,102.6,102.58,102.589,1127
266,102.56,102.6,102.56,102.58,4800
267,102.64,102.64,102.57,102.57,2000
268,102.62,102.66,102.62,102.63,900
269,102.62,102.62,102.62,102.62,200
271,102.59,102.62,102.59,102.62,1300
272,102.61,102.61,102.61,102.61,1015
273,102.63,102.63,102.615,102.6198,1552
274,102.63,102.63,102.63,102.63,200
275,102.6454,102.6454,102.64,102.64,723
276,102.64,102.66,102.64,102.66,939
277,102.63,102.63,102.63,102.63,400
278,102.61,102.63,102.61,102.62,1100
279,102.67,102.68,102.61,102.61,3601
280,102.65,102.65,102.65,102.65,200
281,102.67,102.67,102.66,102.66,1201
282,102.64,102.67,102.64,102.67,1504
283,102.66,102.66,102.66,102.66,200
284,102.69,102.7,102.655,102.655,2399
285,102.69,102.69,102.68,102.685,300
286,102.7,102.71,102.69,102.69,1964
287,102.67,102.69,102.67,102.69,1254
288,102.725,102.73,102.67,102.67,1501
289,102.71,102.725,102.71,102.72,1600
290,102.71,102.71,102.7,102.71,1699
291,102.72,102.72,102.71,102.71,1417
292,102.7454,102.75,102.73,102.73,2736
293,102.73,102.76,102.73,102.7599,2148
295,102.71,102.73,102.71,102.72,2001
296,102.71,102.71,102.71,102.71,400
297,102.72,102.72,102.7,102.71,1301
298,102.74,102.75,102.7199,102.7199,5685
299,102.73,102.73,102.73,102.73,100
300,102.78,102.78,102.73,102.74,10802
302,102.765,102.785,102.75,102.785,6212
303,102.67,102.77,102.67,102.765,6071
304,102.8399,102.845,102.69,102.69,8664
305,102.85,102.905,102.83,102.835,4883
306,102.83,102.85,102.83,102.85,1195
307,102.875,102.875,102.86,102.86,1800
308,102.7,102.89,102.7,102.89,9504
309,102.725,102.725,102.7,102.7,400
310,102.705,102.705,102.69,102.7,32300
311,102.69,102.69,102.68,102.68,489
312,102.695,102.705,102.69,102.7,2000
313,102.66,102.69,102.64,102.69,2000
314,102.66,102.68,102.63,102.6429,3809
316,102.64,102.64,102.64,102.64,200
317,102.592,102.63,102.592,102.63,1000
318,102.63,102.64,102.63,102.63,700
319,102.62,102.64,102.62,102.62,700
320,102.63,102.64,102.62,102.62,1000
321,102.63,102.63,102.62,102.63,1154
322,102.62,102.62,102.61,102.61,900
323,102.625,102.63,102.62,102.62,1479
324,102.67,102.67,102.63,102.63,1800
325,102.69,102.7,102.67,102.67,1796
326,102.68,102.69,102.67,102.68,1001
327,102.72,102.72,102.68,102.7,1882
328,102.7,102.72,102.7,102.72,1748
329,102.71,102.72,102.7,102.7,812
330,102.72,102.72,102.69,102.705,3448
331,102.75,102.77,102.73,102.73,2701
332,102.78,102.78,102.77,102.77,2293
333,102.7825,102.8,102.77,102.78,1642
334,102.7776,102.79,102.7776,102.78,3050
335,102.76,102.79,102.76,102.79,900
336,102.77,102.77,102.765,102.77,700
337,102.78,102.79,102.78,102.78,1300
338,102.81,102.81,102.78,102.78,1202
339,102.8,102.82,102.8,102.8021,1750
340,102.8,102.82,102.8,102.81,2906
341,102.8,102.83,102.8,102.81,4380
342,102.81,102.81,102.79,102.79,2100
343,102.82,102.82,102.81,102.81,3827
344,102.86,102.86,102.83,102.83,2570
345,102.84,102.8702,102.83,102.87,5525
346,102.87,102.87,102.85,102.85,2865
347,102.87,102.88,102.87,102.88,901
348,102.86,102.89,102.86,102.87,4018
349,102.885,102.885,102.87,102.87,1243
350,102.9,102.9,102.885,102.89,1643
351,102.905,102.91,102.9,102.905,1200
352,102.93,102.93,102.9,102.9,2901
353,102.97,102.97,102.91,102.92,3548
354,102.955,102.97,102.955,102.97,1800
355,102.95,102.97,102.95,102.95,2751
356,102.975,102.98,102.9688,102.97,2577
357,102.98,102.98,102.96,102.96,2323
358,102.99,103.01,102.975,102.98,5697
359,103.01,103.02,102.99,102.995,3361
360,103.01,103.02,103,103.01,2356
361,102.995,103,102.99,102.995,2133
362,102.97,102.995,102.95,102.995,6704
363,102.965,102.98,102.96,102.98,5332
364,102.97,102.97,102.965,102.97,1673
365,102.975,102.98,102.96,102.96,5257
366,102.98,102.98,102.96,102.98,3113
367,103.02,103.02,102.98,102.98,5546
368,103.05,103.05,103.02,103.02,5166
369,103.03,103.05,103.03,103.05,5320
370,103.035,103.04,103.02,103.035,5025
371,103.03,103.035,103.02,103.03,5219
372,103.04,103.04,103.02,103.03,3900
373,103.05,103.06,103.04,103.04,6082
374,103.05,103.06,103.05,103.05,7641
375,103.07,103.08,103.04,103.05,13907
376,103.07,103.08,103.06,103.07,6018
377,103.1,103.1,103.07,103.07,17084
378,103.13,103.14,103.1,103.1,7389
379,103.115,103.14,103.1102,103.14,10250
380,103.11,103.13,103.11,103.115,9641
381,103.01,103.115,103.01,103.11,13658
382,103.03,103.04,103,103.01,9070
383,103.04,103.05,103.0225,103.035,9763
384,103.045,103.05,103.03,103.04,22047
385,103.03,103.045,103.02,103.045,13617
386,103.01,103.04,103,103.04,7357
387,103.02,103.03,103.005,103.01,19253
388,103.035,103.04,103.01,103.02,11274
389,103,103.04,103,103.035,19173
390,102.95,103,102.89,103,39211
