EOG,EOG Resources,Energy,3,Oil & Gas Exploration & Production,54992224556,3166057
a1495459800,94.13,94.13,94.13,94.13,24573
1,94.335,94.755,94.33,94.35,6852
2,94.27,94.4,94.27,94.31,4371
3,94.31,94.365,94.19,94.3,5615
4,94.2,94.295,94.19,94.295,4200
5,94.6,94.65,94.27,94.28,3485
6,94.16,94.59,94.15,94.49,13428
7,93.99,94.15,93.92,94.15,17279
8,93.72,93.99,93.72,93.96,5729
9,93.925,93.95,93.72,93.72,5245
10,93.99,93.99,93.89,93.93,1600
11,93.84,93.965,93.79,93.95,4710
12,93.88,93.88,93.82,93.88,2895
13,93.86,93.89,93.809,93.89,3500
14,93.92,93.92,93.8,93.81,5660
15,93.945,93.95,93.92,93.95,700
16,94.1,94.1,93.96,93.98,5467
17,94.026,94.155,94.02,94.12,5276
18,94.13,94.14,94.05,94.06,4544
19,94.16,94.18,94.1,94.13,6500
20,94.07,94.165,94.05,94.16,2200
21,93.94,94.045,93.92,94.01,1900
22,93.92,93.95,93.88,93.89,1800
23,93.89,93.94,93.85,93.87,1950
24,93.88,93.88,93.75,93.82,2600
25,93.95,93.95,93.86,93.94,2495
26,93.88,93.91,93.86,93.91,900
27,93.76,93.84,93.75,93.81,2094
28,93.81,93.81,93.67,93.73,2900
29,93.77,93.81,93.72,93.81,2400
30,93.76,93.78,93.72,93.74,1050
31,93.74,93.76,93.7,93.76,3000
32,93.69,93.78,93.68,93.75,5895
33,93.6,93.71,93.6,93.685,2099
34,93.64,93.64,93.59,93.62,3534
35,93.79,93.79,93.6464,93.6464,3754
36,93.93,93.96,93.78,93.78,4329
37,93.9,93.95,93.88,93.95,800
38,93.87,93.97,93.87,93.95,3893
39,93.9383,93.96,93.885,93.885,2800
40,93.82,93.92,93.82,93.92,3600
41,93.77,93.83,93.77,93.81,2494
42,93.79,93.81,93.755,93.77,4350
43,93.735,93.8,93.72,93.78,2300
44,93.68,93.74,93.66,93.71,1500
45,93.65,93.69,93.65,93.67,2300
46,93.77,93.77,93.65,93.66,1400
47,93.906,93.906,93.79,93.79,3000
48,93.89,93.93,93.82,93.9,5983
49,93.78,93.92,93.77,93.9,2242
50,93.73,93.76,93.71,93.74,1432
51,93.67,93.77,93.67,93.77,2700
52,93.66,93.72,93.66,93.69,1900
53,93.68,93.68,93.62,93.65,720
54,93.66,93.68,93.645,93.645,1270
55,93.65,93.67,93.65,93.67,1557
56,93.69,93.69,93.635,93.635,900
57,93.63,93.685,93.63,93.685,3138
58,93.51,93.62,93.51,93.62,5192
59,93.519,93.58,93.48,93.54,9739
60,93.53,93.57,93.51,93.54,3100
61,93.63,93.65,93.55,93.55,6894
62,93.58,93.645,93.56,93.63,6596
63,93.64,93.7,93.58,93.58,4996
64,93.61,93.66,93.58,93.66,3225
65,93.57,93.6199,93.57,93.6199,1400
66,93.55,93.59,93.54,93.58,4918
67,93.5,93.57,93.5,93.57,1349
68,93.53,93.53,93.4745,93.51,3189
69,93.565,93.565,93.54,93.54,1100
70,93.57,93.62,93.5548,93.57,4036
71,93.57,93.63,93.56,93.58,5285
72,93.52,93.56,93.52,93.55,600
73,93.43,93.5,93.43,93.5,600
74,93.45,93.48,93.44,93.44,2300
75,93.43,93.43,93.42,93.43,1680
76,93.46,93.49,93.42,93.43,3020
77,93.54,93.54,93.48,93.48,4145
78,93.41,93.4971,93.41,93.48,1000
79,93.42,93.42,93.33,93.38,2650
80,93.27,93.41,93.27,93.41,2500
81,93.2,93.33,93.2,93.33,1905
82,93.16,93.24,93.16,93.22,5640
83,93.21,93.21,93.144,93.16,3910
84,93.299,93.3,93.23,93.23,3786
85,93.36,93.36,93.275,93.275,5785
86,93.35,93.37,93.31,93.3689,3780
87,93.36,93.36,93.3,93.3305,1800
88,93.36,93.37,93.33,93.34,1500
89,93.35,93.35,93.31,93.32,2400
90,93.36,93.36,93.32,93.35,1800
91,93.31,93.36,93.31,93.36,3965
92,93.31,93.33,93.3043,93.33,2082
93,93.31,93.36,93.31,93.33,2853
94,93.28,93.32,93.28,93.3,1390
95,93.31,93.31,93.26,93.3,2500
96,93.29,93.29,93.26,93.29,2145
97,93.18,93.2977,93.18,93.2977,2016
98,93.22,93.25,93.21,93.22,3010
99,93.17,93.22,93.17,93.21,1100
100,93.195,93.21,93.16,93.17,1384
101,93.17,93.21,93.17,93.185,1275
102,93.2,93.2,93.15,93.15,1800
103,93.25,93.26,93.22,93.22,1210
104,93.22,93.25,93.2,93.23,1860
105,93.155,93.2,93.13,93.2,1511
106,93.13,93.18,93.11,93.16,1100
107,93.07,93.15,93.01,93.15,5100
108,93.11,93.12,93.09,93.09,800
109,93.155,93.18,93.12,93.12,5548
110,93.18,93.18,93.14,93.17,1600
111,93.07,93.16,93.07,93.14,2004
112,92.96,93.06,92.94,93.03,8608
113,92.99,92.99,92.95,92.96,4300
114,93.03,93.04,93.01,93.01,888
115,93.1,93.1,93.02,93.05,2907
116,93.08,93.11,93.08,93.09,1900
117,93.15,93.15,93.075,93.09,1872
118,93.13,93.15,93.11,93.13,1800
119,93.1,93.15,93.07,93.14,2911
120,93.09,93.13,93.07,93.13,1300
121,93.17,93.17,93.12,93.12,2800
122,93.12,93.17,93.11,93.16,2787
123,93.16,93.18,93.12,93.16,3200
124,93.075,93.17,93.07,93.12,1200
125,93.03,93.055,93.03,93.055,200
126,92.95,93.04,92.95,93.03,3036
127,92.8,92.99,92.8,92.99,8470
128,92.87,92.87,92.79,92.82,3470
129,92.86,92.89,92.82,92.85,9692
130,92.85,92.88,92.82,92.85,2100
131,92.94,92.94,92.845,92.85,5185
132,92.87,92.94,92.87,92.89,2200
133,92.92,92.92,92.83,92.83,3200
134,92.89,92.96,92.89,92.92,4700
135,92.9,92.91,92.85,92.89,3404
136,92.96,92.96,92.89,92.9,4818
137,92.95,92.97,92.92,92.95,7360
138,92.965,92.97,92.88,92.96,8704
139,92.965,92.97,92.96,92.97,3000
140,92.985,93,92.93,92.965,6445
141,92.99,93.03,92.97,92.985,7961
142,93.03,93.03,92.99,93.01,3260
143,93.11,93.12,93.04,93.04,3658
144,93.14,93.14,93.07,93.09,3050
145,93.17,93.17,93.12,93.12,2299
146,93.17,93.17,93.14,93.14,6788
147,93.2,93.2,93.165,93.165,5424
148,93.1875,93.19,93.16,93.17,2163
149,93.1,93.22,93.1,93.2,11506
150,93.08,93.14,93.07,93.11,3380
151,93.03,93.1,93.03,93.08,2150
152,93.03,93.06,93.03,93.04,5768
153,93.09,93.09,93.04,93.04,3506
154,93.1,93.13,93.085,93.1,2756
155,93.06,93.09,93.06,93.08,4670
156,93,93.05,92.99,93.05,1318
157,93.05,93.05,92.99,92.99,3900
158,93.02,93.05,93.02,93.035,2262
159,93.03,93.05,92.99,93.0233,1674
160,93.01,93.04,93.01,93.02,1100
161,92.995,93.03,92.99,93.03,2688
162,93.03,93.03,93.02,93.02,500
163,93.04,93.05,93.01,93.03,6270
164,93,93.04,92.99,93.03,5997
165,93.02,93.02,93,93.01,1835
166,93.13,93.18,93,93.03,6376
167,93.1,93.1,93.1,93.1,300
168,93.1199,93.125,93.09,93.12,4140
169,93.13,93.13,93.1,93.12,1000
170,93.14,93.17,93.11,93.12,2750
171,93.19,93.19,93.143,93.143,4650
172,93.17,93.22,93.17,93.178,3898
173,93.2,93.22,93.19,93.22,1710
174,93.26,93.26,93.22,93.23,6426
175,93.25,93.27,93.25,93.27,245
176,93.31,93.31,93.27,93.27,2300
177,93.2963,93.2963,93.28,93.29,1508
178,93.29,93.31,93.26,93.297,2812
179,93.32,93.34,93.28,93.3,1225
180,93.23,93.33,93.23,93.33,1990
181,93.2736,93.2736,93.26,93.27,950
182,93.23,93.3,93.23,93.3,1650
183,93.22,93.245,93.22,93.245,1000
184,93.3,93.3,93.24,93.24,1800
185,93.28,93.2925,93.24,93.2925,3341
186,93.36,93.36,93.3,93.3,600
187,93.38,93.4,93.35,93.36,14661
188,93.43,93.43,93.4,93.4,800
189,93.37,93.43,93.37,93.39,1900
190,93.4,93.43,93.37,93.37,2900
191,93.35,93.405,93.35,93.39,3074
192,93.34,93.37,93.34,93.34,1800
193,93.35,93.35,93.32,93.34,1500
194,93.33,93.33,93.33,93.33,100
196,93.34,93.35,93.33,93.35,2596
197,93.34,93.36,93.34,93.36,400
198,93.37,93.37,93.37,93.37,100
199,93.34,93.37,93.34,93.36,1000
200,93.3553,93.38,93.35,93.35,1075
201,93.33,93.35,93.33,93.35,1800
202,93.25,93.31,93.25,93.31,7828
203,93.3,93.3,93.24,93.24,3300
204,93.29,93.31,93.29,93.3,1000
205,93.3,93.3,93.3,93.3,400
206,93.31,93.31,93.31,93.31,600
207,93.295,93.32,93.28,93.32,2500
208,93.26,93.31,93.25,93.3,1950
209,93.24,93.26,93.2201,93.26,2129
210,93.23,93.24,93.23,93.24,600
211,93.27,93.27,93.24,93.26,2100
212,93.26,93.26,93.25,93.25,500
213,93.23,93.23,93.2,93.23,10906
214,93.26,93.26,93.225,93.225,6000
215,93.23,93.26,93.23,93.26,3348
216,93.2536,93.2536,93.23,93.235,900
217,93.29,93.31,93.25,93.27,2200
218,93.3,93.31,93.29,93.29,1635
219,93.31,93.31,93.3,93.3,400
220,93.38,93.38,93.309,93.31,3134
221,93.37,93.37,93.36,93.37,1300
222,93.37,93.38,93.37,93.37,400
223,93.38,93.38,93.36,93.36,822
224,93.39,93.4025,93.39,93.39,2200
225,93.38,93.38,93.38,93.38,400
226,93.33,93.44,93.33,93.41,7600
227,93.35,93.365,93.35,93.35,400
228,93.37,93.41,93.34,93.36,2100
229,93.3801,93.3801,93.37,93.37,1551
230,93.35,93.36,93.35,93.36,1700
231,93.35,93.37,93.35,93.36,1700
232,93.36,93.38,93.356,93.37,3139
233,93.345,93.35,93.33,93.35,1800
234,93.31,93.33,93.31,93.33,600
235,93.3,93.32,93.29,93.32,3600
236,93.27,93.31,93.27,93.2913,4487
237,93.285,93.29,93.27,93.27,1400
238,93.295,93.3,93.27,93.28,2600
239,93.29,93.31,93.27,93.31,10101
240,93.31,93.34,93.3,93.31,2751
241,93.3,93.32,93.29,93.31,1047
242,93.2973,93.2973,93.2973,93.2973,100
243,93.32,93.32,93.295,93.31,900
244,93.3,93.32,93.28,93.3,4930
245,93.32,93.32,93.31,93.31,1200
246,93.3,93.31,93.27,93.3,5362
247,93.3,93.31,93.29,93.3,1307
248,93.33,93.33,93.33,93.33,700
249,93.29,93.31,93.29,93.31,1800
250,93.28,93.29,93.26,93.2825,2100
251,93.28,93.29,93.2645,93.28,1900
252,93.29,93.29,93.26,93.26,3999
253,93.26,93.29,93.26,93.29,1255
254,93.27,93.27,93.255,93.26,800
255,93.28,93.29,93.26,93.26,1867
256,93.27,93.29,93.26,93.27,2945
257,93.27,93.28,93.25,93.28,4234
258,93.28,93.29,93.28,93.28,1214
259,93.25,93.28,93.24,93.26,3279
260,93.25,93.26,93.23,93.245,2100
261,93.26,93.27,93.25,93.26,4300
262,93.25,93.26,93.23,93.26,10323
263,93.22,93.25,93.2,93.25,4600
264,93.2,93.23,93.2,93.2,5005
265,93.26,93.27,93.195,93.195,2800
266,93.2,93.27,93.2,93.27,5885
267,93.21,93.22,93.21,93.21,800
268,93.24,93.24,93.21,93.21,1100
269,93.24,93.25,93.24,93.25,1700
270,93.235,93.26,93.225,93.23,1505
271,93.2,93.23,93.19,93.22,1000
272,93.24,93.26,93.21,93.21,1570
273,93.24,93.26,93.23,93.25,600
274,93.21,93.25,93.21,93.25,2600
275,93.19,93.21,93.19,93.21,400
276,93.22,93.22,93.2,93.2,1500
277,93.2,93.22,93.19,93.2,2700
278,93.22,93.22,93.19,93.2,2200
279,93.2,93.2,93.18,93.2,1908
280,93.22,93.22,93.2,93.2,1200
281,93.245,93.27,93.23,93.24,2135
282,93.24,93.25,93.23,93.24,1287
283,93.2899,93.2899,93.25,93.25,1500
284,93.27,93.3,93.27,93.28,2600
285,93.29,93.3,93.29,93.29,700
286,93.29,93.3,93.26,93.3,3028
287,93.26,93.27,93.24,93.27,1908
288,93.33,93.33,93.2639,93.28,2064
289,93.34,93.35,93.32,93.32,1228
290,93.36,93.36,93.35,93.35,1573
291,93.3599,93.36,93.345,93.36,1000
292,93.33,93.34,93.32,93.34,2500
293,93.39,93.39,93.31,93.31,3500
294,93.44,93.45,93.38,93.38,5650
295,93.4,93.42,93.38,93.42,2776
296,93.395,93.4,93.38,93.3989,426
297,93.42,93.43,93.38,93.394,2040
298,93.42,93.43,93.4,93.42,1210
299,93.42,93.42,93.42,93.42,300
300,93.4999,93.4999,93.45,93.45,1673
301,93.5,93.5,93.47,93.47,750
302,93.51,93.51,93.47,93.49,4400
303,93.5,93.5,93.47,93.49,2600
304,93.53,93.5362,93.4813,93.4813,2000
305,93.52,93.54,93.52,93.53,1362
306,93.44,93.52,93.44,93.51,4586
307,93.47,93.47,93.44,93.44,2184
308,93.49,93.49,93.4601,93.485,1609
309,93.51,93.51,93.47,93.487,1225
310,93.505,93.505,93.505,93.505,119
311,93.4101,93.49,93.4101,93.49,4451
312,93.41,93.44,93.41,93.41,1671
313,93.37,93.41,93.37,93.4,591
314,93.34,93.39,93.34,93.39,5025
315,93.39,93.39,93.33,93.33,3060
316,93.385,93.385,93.385,93.385,100
317,93.41,93.41,93.38,93.385,8442
319,93.42,93.42,93.41,93.41,800
320,93.44,93.44,93.4,93.41,8622
321,93.3898,93.41,93.3898,93.41,1300
322,93.39,93.39,93.365,93.38,7770
323,93.38,93.38,93.36,93.36,1300
324,93.34,93.3799,93.34,93.3799,1651
325,93.37,93.37,93.3575,93.36,918
326,93.38,93.38,93.36,93.36,697
327,93.3668,93.38,93.36,93.36,1502
328,93.303,93.37,93.303,93.36,2739
329,93.32,93.34,93.32,93.32,1020
330,93.37,93.37,93.36,93.36,750
331,93.3584,93.38,93.35,93.36,2893
332,93.41,93.41,93.35,93.37,4513
333,93.4,93.41,93.39,93.39,2270
334,93.41,93.41,93.39,93.39,1695
335,93.41,93.41,93.4025,93.4025,200
336,93.39,93.41,93.38,93.41,2100
337,93.49,93.49,93.39,93.39,5958
338,93.5,93.5,93.47,93.48,2439
339,93.4801,93.4906,93.48,93.48,320
340,93.5,93.5,93.475,93.48,1900
341,93.56,93.56,93.5,93.5,3500
342,93.57,93.58,93.56,93.56,1044
343,93.62,93.62,93.57,93.59,5900
344,93.5886,93.62,93.58,93.62,5321
345,93.6,93.6,93.565,93.58,4125
346,93.6,93.61,93.57,93.59,2400
347,93.63,93.64,93.5974,93.5974,4035
348,93.71,93.71,93.6194,93.63,2400
349,93.68,93.68,93.66,93.68,4000
350,93.63,93.71,93.57,93.68,8148
351,93.61,93.63,93.6,93.63,3445
352,93.59,93.61,93.56,93.61,5300
353,93.58,93.58,93.5746,93.58,1393
354,93.56,93.57,93.545,93.565,4161
355,93.47,93.56,93.47,93.56,4150
356,93.44,93.475,93.44,93.47,5700
357,93.37,93.445,93.35,93.445,6106
358,93.35,93.36,93.33,93.36,5347
359,93.345,93.355,93.345,93.355,2675
360,93.35,93.35,93.34,93.3499,5895
361,93.41,93.41,93.35,93.35,6932
362,93.39,93.42,93.39,93.41,5700
363,93.35,93.39,93.34,93.39,6600
364,93.35,93.36,93.34,93.35,2411
365,93.365,93.37,93.34,93.36,3875
366,93.385,93.39,93.37,93.37,4385
367,93.4,93.41,93.385,93.39,9091
368,93.39,93.41,93.39,93.39,2816
369,93.4,93.41,93.39,93.39,6749
370,93.38,93.41,93.375,93.39,12474
371,93.36,93.38,93.34,93.38,9295
372,93.39,93.39,93.35,93.36,9767
373,93.35,93.4,93.35,93.39,6900
374,93.33,93.37,93.33,93.35,8883
375,93.25,93.325,93.24,93.32,15139
376,93.22,93.26,93.2,93.24,10421
377,93.28,93.29,93.22,93.225,11086
378,93.31,93.31,93.265,93.28,8018
379,93.36,93.36,93.31,93.31,6619
380,93.345,93.35,93.33,93.35,12905
381,93.31,93.35,93.28,93.35,20082
382,93.305,93.32,93.29,93.29,7989
383,93.315,93.33,93.3,93.31,12555
384,93.3297,93.3297,93.305,93.32,16149
385,93.32,93.34,93.31,93.325,10150
386,93.23,93.31,93.22,93.31,18967
387,93.25,93.255,93.23,93.235,12857
388,93.19,93.25,93.17,93.24,13554
389,93.195,93.2,93.17,93.17,18367
390,93.11,93.19,93.03,93.19,85909
