PPG,PPG Industries,Materials,8,Specialty Chemicals,27611127514,1222057
a1495459860,106.95,106.95,106.95,106.95,11823
2,106.985,107.1816,106.985,107.1816,1036
3,106.885,106.885,106.795,106.795,300
5,106.86,106.95,106.81,106.93,2027
6,106.79,106.84,106.68,106.82,5100
7,106.68,106.79,106.575,106.76,3493
8,106.54,106.65,106.54,106.65,900
9,106.64,106.65,106.58,106.64,2200
10,106.69,106.69,106.59,106.59,4890
11,106.605,106.665,106.6,106.665,800
12,106.63,106.67,106.59,106.59,2000
13,106.635,106.66,106.63,106.63,1000
14,106.65,106.65,106.6,106.62,2300
15,106.66,106.71,106.63,106.645,3501
16,106.67,106.67,106.65,106.67,600
17,106.67,106.71,106.67,106.67,1500
18,106.7,106.7,106.67,106.685,800
19,106.58,106.705,106.58,106.705,4900
20,106.45,106.6075,106.44,106.58,3780
21,106.35,106.395,106.35,106.395,1200
22,106.34,106.355,106.3,106.31,2600
23,106.29,106.34,106.23,106.34,1800
24,106.24,106.33,106.22,106.31,1556
25,106.27,106.28,106.25,106.26,1200
26,106.22,106.23,106.21,106.23,600
27,106.28,106.28,106.245,106.25,1700
28,106.281,106.29,106.281,106.29,304
29,106.33,106.34,106.29,106.29,2600
30,106.27,106.3,106.27,106.3,1800
31,106.3,106.3,106.26,106.275,2294
32,106.2393,106.32,106.17,106.27,15717
33,106.29,106.29,106.24,106.24,992
34,106.4,106.4,106.32,106.32,1400
35,106.4201,106.455,106.4,106.4,5500
36,106.44,106.4401,106.38,106.42,1802
37,106.41,106.415,106.4,106.415,300
38,106.45,106.45,106.42,106.42,1100
39,106.41,106.46,106.38,106.46,1401
40,106.4,106.42,106.4,106.42,500
41,106.27,106.43,106.27,106.43,5265
42,106.225,106.26,106.2,106.25,5400
43,106.245,106.27,106.22,106.25,1700
44,106.19,106.24,106.19,106.22,4330
45,106.21,106.21,106.18,106.19,1300
46,106.2,106.24,106.17,106.2,1699
47,106.205,106.23,106.2,106.23,1100
48,106.17,106.23,106.17,106.18,6749
49,106.18,106.19,106.18,106.19,400
50,106.17,106.2,106.17,106.2,300
51,106.16,106.2,106.15,106.185,1300
52,106.215,106.23,106.16,106.17,1800
53,106.2,106.205,106.19,106.19,600
54,106.22,106.22,106.175,106.18,2900
55,106.27,106.27,106.22,106.22,931
56,106.35,106.37,106.28,106.28,1100
57,106.325,106.36,106.31,106.36,4500
58,106.32,106.325,106.31,106.32,800
59,106.41,106.41,106.305,106.32,3802
60,106.43,106.43,106.4,106.41,1376
61,106.3,106.43,106.3,106.43,3704
62,106.34,106.34,106.271,106.29,1250
63,106.33,106.345,106.33,106.34,1500
64,106.28,106.31,106.28,106.3,500
65,106.3,106.3,106.27,106.27,1500
66,106.22,106.295,106.22,106.29,2000
67,106.23,106.23,106.19,106.225,1133
68,106.27,106.28,106.24,106.25,2401
69,106.2501,106.29,106.2501,106.29,943
70,106.205,106.265,106.205,106.265,1806
71,106.23,106.24,106.205,106.205,1600
72,106.23,106.23,106.23,106.23,400
73,106.23,106.25,106.23,106.23,3600
74,106.28,106.28,106.26,106.26,800
75,106.33,106.33,106.295,106.295,500
76,106.36,106.38,106.35,106.35,3400
77,106.325,106.36,106.295,106.36,4573
78,106.275,106.32,106.26,106.32,2100
79,106.21,106.28,106.21,106.28,3941
80,106.24,106.24,106.21,106.215,800
81,106.305,106.305,106.26,106.26,1525
82,106.335,106.35,106.33,106.33,2145
83,106.33,106.33,106.33,106.33,300
84,106.34,106.34,106.33,106.33,800
85,106.3288,106.34,106.31,106.32,1785
86,106.34,106.34,106.33,106.34,514
87,106.37,106.37,106.36,106.37,400
88,106.38,106.38,106.37,106.37,751
89,106.36,106.38,106.36,106.38,1600
90,106.365,106.38,106.35,106.36,1800
91,106.42,106.43,106.365,106.37,3493
92,106.435,106.45,106.41,106.43,1751
93,106.42,106.45,106.42,106.45,2400
95,106.48,106.48,106.43,106.43,2957
96,106.44,106.48,106.43,106.48,2390
97,106.42,106.42,106.39,106.42,900
98,106.42,106.43,106.42,106.42,600
99,106.49,106.49,106.43,106.45,500
100,106.52,106.52,106.5,106.5,500
101,106.54,106.61,106.54,106.54,4019
102,106.52,106.52,106.52,106.52,400
103,106.53,106.53,106.53,106.53,223
104,106.54,106.57,106.5,106.5,1500
105,106.53,106.55,106.53,106.54,500
106,106.5087,106.535,106.5087,106.535,920
107,106.53,106.54,106.52,106.53,1410
108,106.54,106.54,106.54,106.54,100
109,106.62,106.62,106.55,106.55,1500
110,106.59,106.61,106.59,106.6,2000
111,106.57,106.6031,106.57,106.59,1862
112,106.575,106.6,106.57,106.59,2547
113,106.62,106.62,106.545,106.57,8449
114,106.67,106.67,106.61,106.63,7200
115,106.65,106.65,106.65,106.65,300
116,106.69,106.69,106.65,106.65,1000
117,106.67,106.68,106.67,106.675,700
118,106.65,106.675,106.65,106.66,1500
119,106.65,106.65,106.65,106.65,119
120,106.73,106.73,106.67,106.67,1359
121,106.78,106.78,106.76,106.76,1500
122,106.77,106.77,106.77,106.77,700
123,106.75,106.77,106.75,106.76,1817
124,106.73,106.73,106.73,106.73,100
125,106.74,106.755,106.74,106.755,200
126,106.77,106.78,106.755,106.755,2007
127,106.7,106.785,106.7,106.78,1600
128,106.745,106.75,106.73,106.73,1720
129,106.77,106.77,106.76,106.76,265
130,106.77,106.77,106.755,106.755,400
131,106.78,106.8,106.77,106.77,2200
132,106.77,106.7803,106.76,106.7803,1900
134,106.79,106.79,106.77,106.77,500
135,106.8,106.81,106.77,106.77,1500
136,106.8,106.82,106.79,106.79,2436
137,106.77,106.79,106.77,106.79,1650
138,106.775,106.785,106.77,106.785,700
139,106.735,106.775,106.73,106.775,716
140,106.77,106.77,106.721,106.735,1200
141,106.72,106.76,106.72,106.7501,1372
143,106.79,106.79,106.74,106.74,1400
144,106.79,106.79,106.77,106.78,642
145,106.7524,106.77,106.75,106.77,1405
146,106.78,106.78,106.74,106.74,1500
147,106.7975,106.81,106.795,106.795,629
148,106.84,106.84,106.81,106.81,1004
149,106.87,106.9,106.86,106.86,1882
150,106.86,106.87,106.84,106.86,1400
151,106.86,106.86,106.86,106.86,100
152,106.89,106.89,106.89,106.89,500
153,106.91,106.91,106.91,106.91,300
154,106.89,106.915,106.89,106.89,1149
155,106.89,106.89,106.89,106.89,400
156,106.89,106.89,106.87,106.88,1200
157,106.86,106.8789,106.86,106.8789,600
158,106.86,106.86,106.85,106.85,650
159,106.865,106.865,106.865,106.865,310
161,106.87,106.89,106.865,106.89,300
162,106.89,106.9,106.865,106.88,700
163,106.92,106.93,106.915,106.915,600
164,106.91,106.92,106.91,106.92,1300
165,106.97,106.97,106.92,106.94,786
166,107,107,106.97,106.97,750
167,106.92,106.98,106.92,106.98,500
168,106.9,106.9,106.9,106.9,100
170,106.81,106.89,106.81,106.89,2414
171,106.8,106.8,106.8,106.8,100
172,106.8,106.8,106.8,106.8,300
173,106.8,106.802,106.8,106.8,751
174,106.78,106.8,106.78,106.79,900
175,106.77,106.775,106.77,106.775,1700
176,106.81,106.81,106.775,106.78,1800
177,106.8,106.81,106.8,106.81,200
178,106.8,106.8,106.8,106.8,300
179,106.805,106.82,106.79,106.79,600
181,106.84,106.84,106.83,106.83,300
182,106.8499,106.8499,106.8201,106.8201,382
183,106.87,106.88,106.84,106.84,1000
184,106.8,106.86,106.79,106.86,1890
185,106.795,106.8,106.7692,106.7692,1657
186,106.8,106.8,106.79,106.79,508
187,106.8,106.8,106.8,106.8,300
188,106.82,106.82,106.8,106.8,900
189,106.82,106.82,106.8,106.8,400
190,106.81,106.86,106.81,106.83,1100
191,106.81,106.81,106.8,106.8,300
192,106.88,106.88,106.85,106.85,200
193,106.83,106.85,106.83,106.85,300
194,106.82,106.84,106.79,106.83,1500
195,106.8074,106.8074,106.8074,106.8074,214
196,106.84,106.84,106.83,106.83,400
197,106.86,106.86,106.86,106.86,100
198,106.89,106.89,106.875,106.875,300
199,106.83,106.88,106.83,106.88,1755
200,106.81,106.81,106.81,106.81,200
202,106.8,106.84,106.8,106.81,1800
203,106.79,106.81,106.79,106.8,600
205,106.775,106.78,106.76,106.78,1300
206,106.775,106.775,106.775,106.775,100
207,106.859,106.859,106.77,106.78,2009
208,106.79,106.8,106.79,106.8,1300
209,106.79,106.7908,106.79,106.7908,271
210,106.81,106.82,106.795,106.8,1062
211,106.82,106.84,106.82,106.84,200
212,106.81,106.845,106.81,106.83,500
214,106.75,106.8,106.75,106.78,1300
215,106.76,106.77,106.755,106.755,1100
216,106.76,106.77,106.75,106.77,300
217,106.78,106.79,106.77,106.79,700
218,106.78,106.78,106.78,106.78,300
219,106.81,106.81,106.79,106.79,1600
220,106.79,106.82,106.79,106.82,300
221,106.8,106.82,106.79,106.79,500
222,106.8,106.8,106.8,106.8,200
223,106.81,106.81,106.78,106.8,1102
224,106.775,106.78,106.775,106.78,600
225,106.77,106.775,106.75,106.775,2300
226,106.73,106.75,106.73,106.74,500
227,106.72,106.745,106.72,106.745,600
228,106.69,106.72,106.69,106.72,300
229,106.705,106.71,106.7,106.7,1356
230,106.73,106.75,106.7,106.7,1505
231,106.75,106.75,106.73,106.75,987
232,106.75,106.75,106.75,106.75,100
233,106.75,106.75,106.73,106.75,500
234,106.77,106.77,106.75,106.75,300
235,106.77,106.775,106.75,106.75,1725
236,106.74,106.77,106.74,106.77,600
238,106.73,106.74,106.7201,106.74,1700
239,106.69,106.73,106.69,106.71,1555
241,106.68,106.68,106.68,106.68,100
242,106.73,106.73,106.68,106.68,1400
243,106.71,106.73,106.7,106.73,700
244,106.67,106.7,106.67,106.7,800
245,106.63,106.63,106.63,106.63,200
246,106.62,106.6598,106.62,106.6598,252
247,106.62,106.62,106.62,106.62,700
248,106.62,106.62,106.62,106.62,100
249,106.63,106.63,106.63,106.63,100
250,106.68,106.68,106.65,106.65,2291
251,106.68,106.68,106.68,106.68,250
252,106.68,106.68,106.66,106.67,1000
253,106.73,106.73,106.69,106.69,1400
255,106.71,106.722,106.71,106.722,343
256,106.73,106.74,106.72,106.72,1300
257,106.71,106.72,106.7,106.72,1000
259,106.68,106.68,106.68,106.68,200
260,106.71,106.71,106.7,106.7,700
261,106.76,106.76,106.69,106.69,800
262,106.74,106.75,106.72,106.75,1300
263,106.73,106.73,106.73,106.73,900
264,106.67,106.74,106.67,106.74,800
266,106.66,106.67,106.66,106.67,300
267,106.67,106.68,106.65,106.65,1944
268,106.62,106.67,106.62,106.67,1150
269,106.6,106.61,106.6,106.61,300
270,106.54,106.6,106.54,106.6,1051
271,106.54,106.54,106.53,106.53,200
272,106.57,106.57,106.54,106.54,2594
273,106.51,106.56,106.51,106.55,2200
275,106.52,106.52,106.52,106.52,338
276,106.545,106.55,106.535,106.535,1700
277,106.53,106.53,106.53,106.53,100
278,106.53,106.56,106.53,106.54,2347
279,106.54,106.54,106.52,106.53,1207
280,106.53,106.55,106.53,106.54,2648
281,106.53,106.53,106.53,106.53,600
282,106.55,106.55,106.54,106.54,939
283,106.55,106.57,106.54,106.5501,1762
284,106.55,106.57,106.55,106.55,1100
285,106.58,106.58,106.58,106.58,452
286,106.6,106.6,106.6,106.6,200
287,106.5932,106.61,106.5932,106.6,2733
288,106.58,106.6,106.58,106.6,1001
289,106.59,106.59,106.58,106.58,1190
290,106.61,106.61,106.58,106.59,1400
291,106.58,106.588,106.58,106.588,3000
292,106.56,106.58,106.56,106.57,800
293,106.58,106.58,106.58,106.58,333
294,106.54,106.5522,106.54,106.5522,300
295,106.5617,106.5617,106.53,106.53,1000
296,106.56,106.56,106.55,106.55,471
297,106.57,106.57,106.57,106.57,400
298,106.6,106.61,106.59,106.59,1500
300,106.62,106.62,106.61,106.61,957
301,106.58,106.63,106.58,106.63,2491
302,106.561,106.58,106.56,106.56,1078
304,106.55,106.56,106.55,106.56,1428
305,106.52,106.52,106.52,106.52,100
306,106.54,106.55,106.51,106.51,3050
307,106.5491,106.5491,106.53,106.53,767
308,106.568,106.568,106.568,106.568,102
310,106.57,106.57,106.54,106.57,2267
311,106.55,106.56,106.55,106.56,200
312,106.52,106.56,106.52,106.55,1507
313,106.542,106.542,106.54,106.54,641
314,106.56,106.56,106.55,106.55,1600
316,106.53,106.56,106.53,106.56,1388
317,106.54,106.55,106.54,106.54,400
318,106.55,106.57,106.54,106.54,4526
319,106.58,106.58,106.54,106.54,2000
320,106.55,106.575,106.55,106.57,2308
321,106.5634,106.57,106.55,106.55,1109
322,106.56,106.5742,106.56,106.5742,792
324,106.5451,106.5451,106.5451,106.5451,295
326,106.49,106.55,106.49,106.54,1850
328,106.45,106.45,106.42,106.42,1282
329,106.44,106.44,106.44,106.44,200
330,106.45,106.45,106.45,106.45,700
331,106.45,106.45,106.43,106.45,1645
332,106.43,106.44,106.43,106.44,400
333,106.43,106.44,106.43,106.44,200
334,106.43,106.43,106.43,106.43,100
335,106.43,106.43,106.42,106.43,1400
336,106.52,106.52,106.44,106.44,4863
337,106.48,106.49,106.48,106.49,1005
338,106.45,106.46,106.45,106.46,456
339,106.45,106.45,106.45,106.45,100
340,106.47,106.47,106.45,106.46,1000
341,106.49,106.49,106.48,106.48,751
342,106.4952,106.51,106.49,106.51,395
343,106.49,106.52,106.49,106.52,200
344,106.47,106.5,106.47,106.5,1400
345,106.47,106.47,106.47,106.47,327
346,106.49,106.5,106.47,106.48,1673
347,106.5,106.5,106.4924,106.4924,1686
348,106.49,106.5,106.47,106.49,2165
349,106.46,106.47,106.46,106.47,200
350,106.43,106.44,106.43,106.44,1000
351,106.43,106.44,106.41,106.41,1736
352,106.45,106.45,106.44,106.44,2000
353,106.45,106.46,106.44,106.46,1000
354,106.44,106.46,106.44,106.46,1340
355,106.4,106.44,106.4,106.44,804
356,106.395,106.4,106.39,106.4,2440
357,106.42,106.42,106.395,106.395,1700
358,106.48,106.49,106.4262,106.43,12525
359,106.51,106.51,106.48,106.5,3159
360,106.52,106.52,106.5,106.52,1822
361,106.52,106.52,106.5,106.52,1843
362,106.49,106.51,106.48,106.51,1636
363,106.48,106.49,106.46,106.49,1600
364,106.46,106.47,106.45,106.47,2001
365,106.51,106.51,106.47,106.47,1900
366,106.53,106.53,106.52,106.52,871
367,106.52,106.545,106.5,106.53,8044
368,106.51,106.51,106.51,106.51,200
369,106.495,106.53,106.49,106.53,4499
370,106.49,106.49,106.48,106.49,1831
371,106.51,106.52,106.49,106.5,7073
372,106.5,106.52,106.5,106.51,1981
373,106.48,106.5,106.48,106.5,2200
374,106.5,106.5,106.47,106.48,4358
375,106.525,106.53,106.49,106.5,6464
376,106.53,106.53,106.5,106.52,4996
377,106.52,106.54,106.52,106.53,2402
378,106.52,106.53,106.51,106.52,3220
379,106.52,106.52,106.51,106.51,1858
380,106.51,106.55,106.51,106.52,5248
381,106.5,106.52,106.5,106.51,5688
382,106.5,106.5,106.49,106.5,3001
383,106.5,106.51,106.49,106.49,3181
384,106.5,106.51,106.49,106.5,8401
385,106.495,106.51,106.49,106.5,6447
386,106.53,106.54,106.49,106.49,8463
387,106.47,106.54,106.46,106.54,13960
388,106.41,106.46,106.4,106.46,12635
389,106.41,106.42,106.35,106.41,23300
