EOG,EOG Resources,Energy,3,Oil & Gas Exploration & Production,54281588785,3060650
a1494250200,90.8,90.8,90.39,90.39,37604
1,90.66,90.88,90.25,90.71,15038
2,90.57,90.63,90.49,90.63,38706
3,90.4648,90.54,90.46,90.54,3603
4,90.47,90.49,90.33,90.41,5444
5,90.32,90.425,90.17,90.42,10825
6,90.72,90.72,90.31,90.31,1430
7,90.31,90.67,90.31,90.57,8130
8,90.5,90.62,90.31,90.31,4348
9,90.48,90.52,90.35,90.495,3800
10,90.65,90.71,90.49,90.49,6690
11,90.7,90.92,90.65,90.65,78925
12,90.95,90.95,90.77,90.77,3386
13,91.0762,91.18,90.965,90.965,5974
14,91.22,91.25,91.03,91.03,6926
15,91.14,91.22,91.03,91.19,82786
16,91.31,91.31,91.04,91.06,6109
17,91.06,91.31,91.055,91.31,6649
18,91.2143,91.29,91.05,91.07,55825
19,91.27,91.3036,91.15,91.16,22252
20,91.265,91.35,91.23,91.28,5100
21,91.36,91.43,91.23,91.26,16425
22,91.46,91.55,91.34,91.38,13847
23,91.38,91.49,91.34,91.43,5213
24,91.47,91.47,91.35,91.36,5058
25,91.47,91.5146,91.425,91.465,3880
26,91.56,91.56,91.42,91.5,5048
27,91.58,91.61,91.515,91.58,10288
28,91.62,91.64,91.55,91.59,6515
29,91.61,91.76,91.58,91.65,5845
30,91.59,91.62,91.56,91.595,2100
31,91.59,91.63,91.49,91.62,33409
32,91.52,91.595,91.49,91.57,12900
33,91.52,91.6,91.49,91.53,8096
34,91.345,91.55,91.28,91.55,12426
35,91.41,91.54,91.27,91.32,38682
36,91.58,91.59,91.4,91.41,17768
37,91.6,91.71,91.59,91.61,10000
38,91.58,91.61,91.535,91.585,4402
39,91.42,91.61,91.41,91.6,6477
40,91.29,91.44,91.29,91.4,5100
41,91.28,91.3,91.17,91.3,13467
42,91.41,91.42,91.24,91.28,7636
43,91.33,91.44,91.33,91.43,7989
44,91.36,91.36,91.25,91.34,10064
45,91.17,91.39,91.15,91.37,6539
46,91.115,91.2,90.97,91.1597,11242
47,91.15,91.205,91.11,91.15,6900
48,91.425,91.46,91.15,91.15,11982
49,91.37,91.46,91.35,91.45,5200
50,91.36,91.38,91.34,91.34,600
51,91.35,91.4,91.34,91.37,3560
52,91.38,91.43,91.34,91.34,5762
53,91.27,91.36,91.19,91.36,11449
54,91.2,91.275,91.17,91.275,8946
55,91.29,91.35,91.2,91.2,6722
56,91.245,91.31,91.21,91.28,27376
57,91.14,91.34,91.14,91.28,4737
58,91.15,91.22,91.13,91.17,5461
59,91.175,91.2,91.11,91.13,17323
60,91.15,91.23,91.15,91.1752,7710
61,91.16,91.21,91.15,91.15,6000
62,91.08,91.21,91.08,91.17,9345
63,91.155,91.16,91.02,91.1,20164
64,91.37,91.37,91.11,91.17,10390
65,91.24,91.38,91.19,91.35,13786
66,91.34,91.4,91.24,91.24,17989
67,91.26,91.35,91.245,91.35,4046
68,91.23,91.33,91.23,91.25,8510
69,91.3,91.3,91.21,91.22,14834
70,91.24,91.3,91.2,91.3,20534
71,91.23,91.27,91.2,91.25,13300
72,91.2429,91.28,91.21,91.215,55804
73,91.18,91.28,91.18,91.26,7000
74,91.16,91.19,91.14,91.19,13844
75,91.2,91.23,91.18,91.18,3600
76,91.29,91.29,91.21,91.24,4743
77,91.2,91.29,91.2,91.275,6719
78,91.1,91.22,91.1,91.2,8900
79,91.13,91.17,91.07,91.07,15691
80,91.15,91.17,91.12,91.12,4325
81,91.11,91.18,91.11,91.17,6026
82,91.11,91.16,91.1,91.11,14300
83,91.08,91.11,91.08,91.11,1000
84,91.01,91.1,91.01,91.1,8757
85,91.03,91.04,91,91,6900
86,91.06,91.08,91,91.07,14875
87,91.08,91.1,91.06,91.06,2200
88,91.16,91.16,91.1001,91.11,2032
89,91.21,91.21,91.14,91.16,1600
90,91.22,91.29,91.2,91.2,21465
91,91.235,91.24,91.2,91.23,4994
92,91.18,91.25,91.17,91.235,2864
93,91.16,91.18,91.13,91.17,5529
94,91.2,91.2,91.14,91.1596,9317
95,91.18,91.2,91.13,91.2,4100
96,91.15,91.22,91.15,91.22,3878
97,91.17,91.23,91.17,91.18,1900
98,91.19,91.19,91.13,91.16,2617
99,91.24,91.27,91.186,91.21,3009
100,91.23,91.28,91.23,91.25,4621
101,91.23,91.23,91.1855,91.23,3291
102,91.2,91.262,91.17,91.17,8250
103,91.2,91.2,91.15,91.2,1800
104,91.15,91.16,91.14,91.16,2002
105,91.15,91.15,91.11,91.13,2400
106,91.1433,91.16,91.11,91.14,3900
107,91.16,91.16,91.15,91.15,800
108,91.17,91.17,91.1,91.14,10861
109,91.16,91.19,91.13,91.14,6389
110,91.135,91.15,91.11,91.15,7047
111,91.1,91.14,91.1,91.14,7597
112,91.185,91.22,91.1,91.1,7912
113,91.15,91.24,91.1,91.24,4650
114,91.15,91.17,91.13,91.17,3489
115,91.2,91.21,91.09,91.14,10367
116,91.15,91.24,91.15,91.2,3505
117,91.06,91.19,91.06,91.15,4076
118,91.04,91.06,91.015,91.06,4268
119,90.915,91.06,90.915,91.05,5036
120,90.8,90.91,90.7001,90.9,5774
121,90.99,90.99,90.8,90.81,7751
122,91,91.015,90.99,90.99,2847
123,90.975,90.98,90.92,90.97,3301
124,90.96,91,90.96,90.985,800
125,90.9929,91.035,90.99,91,4345
126,90.96,91.02,90.96,91,6557
127,91.01,91.03,90.965,90.965,3998
128,90.98,90.99,90.93,90.99,3450
129,91.0725,91.08,90.985,90.985,2817
130,91.1,91.15,91.065,91.065,16050
131,91.135,91.18,91.1,91.11,8905
132,91.11,91.13,91.09,91.13,2454
133,91.065,91.1,91.06,91.1,4948
134,91.084,91.084,91.03,91.08,5780
135,91.165,91.19,91.08,91.08,4484
136,91.1,91.15,91.1,91.14,2220
137,91.1,91.19,91.1,91.12,5676
138,91.05,91.1,91.02,91.1,4914
139,91.05,91.08,91.03,91.05,1920
140,91.055,91.055,91.02,91.04,5007
141,91.03,91.06,91.005,91.06,7245
142,91.03,91.05,91,91.03,2400
143,91,91.07,90.98,91.03,11343
144,91.14,91.14,90.99,91.01,13348
145,91.1,91.19,91.1,91.15,8628
146,91.19,91.2,91.12,91.12,6944
147,91.21,91.21,91.16,91.19,3224
148,91.1838,91.21,91.18,91.191,3150
149,91.16,91.185,91.15,91.185,2300
150,91.185,91.185,91.12,91.16,4898
151,91.18,91.23,91.145,91.15,6105
152,91.25,91.27,91.18,91.18,8501
153,91.26,91.26,91.255,91.255,500
154,91.19,91.26,91.18,91.26,6482
155,91.2,91.2,91.17,91.19,1600
156,91.13,91.19,91.12,91.19,5769
157,91.16,91.16,91.11,91.11,1100
158,91.2,91.2,91.15,91.16,8464
159,91.25,91.27,91.2,91.2,4865
160,91.27,91.27,91.25,91.25,1600
161,91.3,91.3,91.26,91.26,1700
162,91.315,91.33,91.3,91.3,1000
163,91.325,91.334,91.28,91.33,3375
164,91.265,91.38,91.25,91.34,6500
165,91.22,91.28,91.22,91.28,1368
166,91.28,91.28,91.175,91.22,6400
167,91.28,91.28,91.26,91.26,7166
168,91.28,91.28,91.24,91.28,4822
169,91.32,91.34,91.2575,91.2575,5599
170,91.29,91.32,91.29,91.305,3329
171,91.275,91.28,91.25,91.25,1200
172,91.275,91.275,91.25,91.27,2800
173,91.35,91.357,91.27,91.29,2662
174,91.3,91.35,91.29,91.35,2000
175,91.39,91.39,91.3,91.3,4417
176,91.29,91.38,91.29,91.38,2500
177,91.295,91.3,91.295,91.295,800
178,91.32,91.32,91.29,91.295,1409
179,91.3,91.349,91.29,91.32,2500
180,91.29,91.33,91.26,91.28,7825
181,91.25,91.315,91.25,91.3,4407
182,91.25,91.25,91.23,91.24,400
183,91.22,91.25,91.2,91.24,2600
184,91.255,91.26,91.23,91.23,2400
185,91.3,91.3,91.215,91.255,7074
186,91.34,91.36,91.3,91.3,4385
187,91.305,91.3639,91.27,91.36,4797
188,91.32,91.32,91.278,91.3,2686
189,91.32,91.325,91.235,91.3,11677
190,91.3,91.345,91.28,91.32,2884
191,91.335,91.35,91.2997,91.2997,1553
192,91.34,91.35,91.33,91.34,4117
193,91.32,91.38,91.32,91.38,4671
194,91.26,91.32,91.22,91.32,11484
195,91.31,91.37,91.25,91.26,3801
196,91.35,91.36,91.33,91.34,1119
197,91.345,91.355,91.31,91.355,3550
198,91.4,91.4,91.34,91.345,8100
199,91.36,91.38,91.36,91.38,1909
200,91.26,91.36,91.26,91.36,8305
201,91.33,91.33,91.24,91.25,7639
202,91.3904,91.4,91.35,91.35,3058
203,91.4,91.4,91.36,91.39,3250
204,91.385,91.4,91.38,91.4,1400
205,91.44,91.44,91.37,91.4,2737
206,91.455,91.46,91.41,91.43,3810
207,91.42,91.46,91.42,91.46,4639
208,91.47,91.47,91.42,91.42,1100
209,91.49,91.49,91.47,91.47,1582
210,91.59,91.59,91.49,91.49,4038
211,91.49,91.58,91.49,91.58,4300
212,91.47,91.51,91.47,91.5,2948
213,91.37,91.49,91.37,91.49,3740
214,91.42,91.44,91.42,91.42,3111
215,91.52,91.52,91.425,91.434,2810
216,91.6,91.6,91.52,91.52,2502
217,91.6323,91.64,91.56,91.57,4318
218,91.63,91.64,91.59,91.64,3200
219,91.62,91.63,91.61,91.61,2900
220,91.63,91.69,91.61,91.62,4197
221,91.67,91.69,91.65,91.65,800
222,91.66,91.7,91.64,91.69,5672
223,91.62,91.66,91.62,91.66,1400
224,91.57,91.65,91.57,91.65,2800
225,91.61,91.63,91.5601,91.57,2100
226,91.59,91.61,91.56,91.61,1600
227,91.63,91.65,91.58,91.59,4762
228,91.63,91.68,91.61,91.61,2471
229,91.66,91.68,91.63,91.63,1600
230,91.65,91.69,91.65,91.68,1600
231,91.69,91.69,91.65,91.65,2900
232,91.69,91.72,91.67,91.67,3587
233,91.74,91.78,91.69,91.69,2000
234,91.69,91.77,91.69,91.73,2435
235,91.68,91.7379,91.68,91.69,3476
236,91.7454,91.77,91.68,91.68,4583
237,91.7,91.72,91.68,91.71,5192
238,91.76,91.76,91.6961,91.71,1914
239,91.76,91.78,91.72,91.76,2415
240,91.68,91.76,91.68,91.76,2804
241,91.69,91.71,91.64,91.66,6899
242,91.72,91.73,91.71,91.71,1900
243,91.69,91.73,91.69,91.71,1400
244,91.71,91.73,91.7,91.7,2923
245,91.75,91.75,91.7,91.7,2328
246,91.71,91.74,91.7,91.74,2700
247,91.71,91.74,91.71,91.72,4700
248,91.71,91.74,91.705,91.73,4546
249,91.74,91.74,91.71,91.72,900
250,91.76,91.76,91.7,91.71,14637
251,91.78,91.79,91.71,91.75,3551
252,91.8,91.81,91.78,91.78,1805
253,91.8,91.86,91.77,91.82,23973
254,91.81,91.82,91.79,91.795,994
255,91.9,91.9,91.81,91.82,7800
256,91.82,91.91,91.82,91.9,5768
257,91.78,91.825,91.78,91.82,1700
258,91.8104,91.8225,91.77,91.77,1321
259,91.8401,91.89,91.82,91.82,2070
260,91.85,91.9,91.85,91.87,2502
261,91.93,91.97,91.9,91.9,17596
262,91.88,91.915,91.88,91.91,5310
263,91.86,91.91,91.86,91.89,2223
264,91.86,91.86,91.82,91.84,3056
265,91.86,91.91,91.82,91.87,3107
266,91.92,91.92,91.87,91.87,900
267,91.9,91.93,91.9,91.9186,6686
268,91.975,91.99,91.9,91.9,5397
269,91.92,91.96,91.92,91.96,2500
270,91.9,91.94,91.9,91.91,4000
271,91.91,91.92,91.8975,91.9,10862
272,91.92,91.955,91.92,91.92,3435
273,91.87,91.95,91.87,91.93,7000
274,91.89,91.9073,91.87,91.87,2222
275,91.9,91.91,91.89,91.91,5337
276,91.91,91.92,91.88,91.92,2501
277,91.935,91.955,91.92,91.92,4696
278,91.93,91.9561,91.92,91.95,2500
279,91.89,91.93,91.89,91.93,1920
280,91.86,91.87,91.84,91.87,2609
281,91.94,91.96,91.8596,91.86,7583
282,91.91,91.95,91.91,91.95,3306
283,91.93,91.935,91.91,91.91,2900
284,91.945,91.96,91.94,91.94,4031
285,91.835,91.93,91.83,91.93,4150
286,91.8,91.835,91.78,91.82,5374
287,91.83,91.83,91.79,91.81,4380
288,91.83,91.85,91.82,91.82,1600
289,91.83,91.83,91.79,91.81,2145
290,91.85,91.85,91.822,91.83,2229
291,91.75,91.855,91.75,91.855,5700
292,91.67,91.73,91.67,91.73,6001
293,91.69,91.69,91.63,91.67,5625
294,91.69,91.69,91.65,91.68,5692
295,91.6775,91.74,91.67,91.7,4500
296,91.7125,91.7125,91.675,91.69,1700
297,91.745,91.745,91.71,91.72,3964
298,91.74,91.75,91.73,91.75,2346
299,91.71,91.76,91.71,91.76,8379
300,91.6898,91.72,91.6898,91.7,5200
301,91.7,91.71,91.69,91.7,5239
302,91.735,91.74,91.7,91.7,6135
303,91.8,91.8,91.74,91.74,5013
304,91.76,91.77,91.75,91.77,2000
305,91.75,91.77,91.74,91.77,3100
306,91.74,91.78,91.74,91.76,4485
307,91.75,91.78,91.75,91.755,7044
308,91.695,91.75,91.69,91.74,5400
309,91.66,91.71,91.63,91.695,8361
310,91.66,91.66,91.66,91.66,200
311,91.69,91.715,91.68,91.68,5325
312,91.71,91.72,91.69,91.69,3800
313,91.71,91.725,91.685,91.7,4700
314,91.735,91.75,91.7,91.7075,5878
315,91.78,91.79,91.73,91.74,10448
316,91.78,91.78,91.77,91.78,1900
317,91.79,91.805,91.775,91.775,4344
318,91.87,91.87,91.79,91.79,5375
319,91.84,91.87,91.8,91.83,6586
320,91.86,91.86,91.82,91.83,4353
321,91.86,91.89,91.86,91.87,5890
322,91.98,91.98,91.85,91.85,6590
323,91.96,91.99,91.95,91.975,4002
324,91.965,91.97,91.96,91.97,3000
325,91.96,91.99,91.96,91.97,3964
326,92.01,92.01,91.96,91.96,12000
327,92.135,92.14,92.01,92.01,12896
328,92.07,92.14,92.06,92.14,9586
329,92.09,92.1,92.08,92.09,4448
330,92.09,92.1,92.08,92.08,3018
331,92.07,92.08,92.04,92.08,6419
332,92.08,92.14,92.065,92.07,26751
333,92.01,92.07,92.01,92.07,4905
334,92.02,92.02,91.98,92.02,3400
335,92.0665,92.0665,92.02,92.02,2812
336,92.06,92.07,92.04,92.0542,6272
337,92.05,92.07,92.03,92.07,4583
338,91.92,92.055,91.92,92.05,5024
339,91.92,91.92,91.89,91.895,5784
340,91.88,91.92,91.86,91.9,4000
341,91.865,91.88,91.86,91.88,1675
342,91.91,91.91,91.86,91.86,6635
343,91.9,91.96,91.9,91.91,7700
344,91.86,91.87,91.85,91.87,3250
345,91.84,91.89,91.84,91.87,4400
346,91.805,91.84,91.805,91.84,2534
347,91.82,91.87,91.8,91.805,8657
348,91.8,91.83,91.791,91.8,8062
349,91.78,91.81,91.78,91.8,10792
350,91.91,91.91,91.785,91.79,8770
351,91.91,91.91,91.89,91.89,3383
352,91.88,91.94,91.87,91.91,10680
353,91.94,91.94,91.87,91.89,6836
354,91.93,91.95,91.905,91.95,4900
355,91.98,91.98,91.91,91.91,7600
356,92.01,92.02,91.96,91.9665,7941
357,92.0275,92.08,92,92.01,9691
358,91.95,92.01,91.93,92.01,6601
359,91.96,91.965,91.93,91.95,10739
360,91.97,91.97,91.94,91.96,11800
361,91.93,92.03,91.93,91.98,11991
362,91.84,91.89,91.84,91.88,11869
363,91.835,91.8801,91.8301,91.84,8164
364,91.7801,91.85,91.7801,91.83,14088
365,91.74,91.8,91.73,91.79,12993
366,91.8,91.83,91.74,91.745,11402
367,91.69,91.81,91.69,91.8,9693
368,91.69,91.78,91.66,91.7,16048
369,91.69,91.74,91.69,91.69,15084
370,91.71,91.73,91.69,91.69,8820
371,91.67,91.7,91.65,91.69,17748
372,91.58,91.67,91.58,91.67,16046
373,91.61,91.63,91.55,91.57,11356
374,91.67,91.67,91.59,91.63,22937
375,91.67,91.7,91.66,91.67,17807
376,91.6,91.685,91.59,91.68,19005
377,91.71,91.7199,91.6,91.6,21917
378,91.665,91.72,91.655,91.71,18032
379,91.6,91.67,91.58,91.66,18775
380,91.62,91.63,91.6,91.61,16366
381,91.6775,91.69,91.61,91.62,13691
382,91.73,91.75,91.675,91.68,18990
383,91.68,91.73,91.68,91.73,12422
384,91.635,91.68,91.635,91.67,18509
385,91.655,91.66,91.64,91.645,11311
386,91.735,91.74,91.655,91.66,17193
387,91.75,91.78,91.73,91.735,35804
388,91.85,91.89,91.76,91.77,23205
389,91.76,91.86,91.75,91.85,31022
390,91.68,91.81,91.63,91.75,60857
