EOG,EOG Resources,Energy,3,Oil & Gas Exploration & Production,52774138093,3164542
a1495805400,91.09,91.29,91.09,91.29,21679
1,90.75,91.18,90.75,91.11,6337
2,90.94,91.09,90.76,90.76,9559
3,90.93,91.05,90.73,90.91,7319
4,90.96,90.98,90.88,90.96,2378
5,91,91.03,90.96,91.02,1600
6,90.94,91.02,90.91,91.02,1600
7,90.72,90.94,90.72,90.94,4230
8,90.82,90.82,90.7183,90.76,4141
9,90.86,90.86,90.76,90.86,4380
10,90.87,90.94,90.83,90.87,4399
11,90.98,91,90.8801,90.93,1825
12,91.145,91.1511,90.99,90.99,3810
13,91.14,91.24,91.06,91.185,9350
14,91.22,91.24,91.1,91.14,1800
15,91.18,91.245,91.18,91.245,6278
16,91.08,91.18,91.01,91.18,9675
17,91.11,91.17,91.04,91.09,3500
18,91.21,91.21,91.11,91.14,4043
19,91.17,91.24,91.12,91.22,4244
20,91.15,91.166,91.15,91.166,300
21,91.15,91.234,91.1,91.1,6529
22,91.155,91.21,91.12,91.13,6859
23,91.32,91.37,91.14,91.14,4700
24,91.34,91.34,91.28,91.31,2006
25,91.26,91.33,91.26,91.33,600
26,91.175,91.21,91.13,91.21,1601
27,91.04,91.21,91.04,91.19,3010
28,91.055,91.07,91,91,2433
29,91.21,91.21,91.055,91.055,4100
30,91.08,91.2,91.07,91.2,45401
31,91.12,91.21,91.05,91.085,4751
32,91.26,91.3,91.12,91.12,7087
33,91.19,91.28,91.19,91.28,4700
34,91.27,91.3,91.21,91.21,17271
35,91.255,91.29,91.24,91.29,6100
36,91.33,91.38,91.24,91.255,9094
37,91.34,91.41,91.34,91.36,3525
38,91.264,91.345,91.26,91.345,11855
39,91.22,91.3,91.22,91.27,3300
40,91.21,91.215,91.19,91.2,1800
41,91.2,91.24,91.19,91.21,3834
42,91.23,91.24,91.17,91.21,4933
43,91.18,91.2301,91.12,91.22,7454
44,91.2,91.22,91.18,91.18,2430
45,91.29,91.29,91.23,91.23,1500
46,91.21,91.27,91.18,91.27,4198
47,91.2,91.21,91.17,91.2,2200
48,91.2,91.2,91.19,91.2,1433
49,91.13,91.2,91.12,91.2,7806
50,91.14,91.15,91.06,91.15,6805
51,91.23,91.27,91.14,91.14,3284
52,91.27,91.3,91.24,91.25,2650
53,91.26,91.27,91.19,91.22,4750
54,91.26,91.32,91.26,91.3,3778
55,91.29,91.34,91.27,91.28,3784
56,91.23,91.32,91.23,91.32,1900
57,91.26,91.31,91.25,91.25,5109
58,91.2,91.26,91.195,91.26,2300
59,91.24,91.25,91.2,91.2,2100
60,91.18,91.24,91.14,91.24,5728
61,91.2337,91.235,91.2,91.2,1801
62,91.1525,91.22,91.14,91.22,3872
63,91,91.15,91,91.15,1800
64,91,91.07,91,91.04,3976
65,91.035,91.05,91,91,3300
66,90.91,91.01,90.91,91.01,2830
67,90.82,90.92,90.8,90.9,3935
68,90.81,90.825,90.76,90.81,4343
69,90.81,90.84,90.81,90.8298,3941
70,90.82,90.9,90.82,90.85,4623
71,90.84,90.85,90.83,90.84,4114
72,90.7722,90.82,90.77,90.82,3250
73,90.687,90.79,90.67,90.78,7109
74,90.65,90.67,90.632,90.67,3150
75,90.62,90.67,90.6,90.67,2550
76,90.53,90.62,90.48,90.62,4400
77,90.6,90.61,90.53,90.55,4700
78,90.46,90.59,90.44,90.59,7324
79,90.37,90.48,90.37,90.45,5323
80,90.325,90.41,90.325,90.354,4676
81,90.33,90.42,90.3,90.32,11132
82,90.3,90.35,90.3,90.35,2435
83,90.23,90.28,90.23,90.26,2580
84,90.26,90.31,90.25,90.25,8675
85,90.3,90.3,90.24,90.26,3898
86,90.12,90.33,90.12,90.31,3950
87,90.29,90.35,90.16,90.18,6961
88,90.24,90.29,90.24,90.29,3100
89,90.36,90.41,90.23,90.23,5264
90,90.36,90.36,90.32,90.36,4813
91,90.401,90.401,90.36,90.38,16612
92,90.5,90.5,90.41,90.41,4400
93,90.44,90.508,90.44,90.49,6025
94,90.52,90.53,90.43,90.4362,5613
95,90.47,90.52,90.46,90.51,3000
96,90.5,90.53,90.48,90.48,6000
97,90.53,90.53,90.47,90.48,3495
98,90.59,90.59,90.5,90.51,3500
99,90.6,90.61,90.54,90.59,4752
100,90.62,90.63,90.59,90.6,2500
101,90.7,90.73,90.68,90.68,1700
102,90.69,90.69,90.66,90.69,2700
103,90.74,90.74,90.7,90.7,3400
104,90.715,90.75,90.67,90.75,8370
105,90.64,90.69,90.63,90.68,2800
106,90.69,90.69,90.64,90.64,4325
107,90.7,90.72,90.6805,90.72,4100
108,90.61,90.7,90.61,90.68,1812
109,90.67,90.69,90.6088,90.61,2784
110,90.68,90.71,90.65,90.67,1975
111,90.76,90.76,90.68,90.68,5504
112,90.81,90.81,90.76,90.76,1800
113,90.72,90.8,90.71,90.8,3100
114,90.75,90.75,90.72,90.72,2900
115,90.93,90.93,90.76,90.76,5664
116,90.87,90.95,90.86,90.95,3169
117,90.92,90.92,90.87,90.87,1700
118,90.9497,90.96,90.92,90.95,3480
119,91.03,91.03,90.95,90.95,2431
120,90.92,91.0639,90.91,91.01,4562
121,90.92,90.93,90.88,90.91,1700
122,90.93,90.94,90.91,90.934,2764
123,90.94,90.94,90.92,90.92,1000
124,90.8903,90.92,90.87,90.92,3925
125,90.76,90.87,90.76,90.87,1604
126,90.74,90.79,90.74,90.78,2290
127,90.77,90.78,90.69,90.7,4154
128,90.78,90.83,90.77,90.77,3500
129,90.74,90.78,90.735,90.76,2700
130,90.76,90.76,90.71,90.74,2380
131,90.68,90.75,90.68,90.75,705
132,90.71,90.73,90.69,90.695,3198
133,90.71,90.73,90.68,90.695,1600
134,90.75,90.75,90.7,90.7,3294
135,90.8,90.81,90.75,90.75,1981
136,90.785,90.8128,90.75,90.8,2553
137,90.72,90.77,90.7,90.77,1538
138,90.705,90.71,90.68,90.7,2569
139,90.75,90.75,90.695,90.7,3100
140,90.73,90.75,90.73,90.75,1674
141,90.74,90.74,90.68,90.72,3650
142,90.71,90.75,90.71,90.73,3346
143,90.7,90.71,90.7,90.71,700
144,90.73,90.74,90.68,90.69,2452
145,90.7101,90.75,90.68,90.73,5750
146,90.64,90.7,90.64,90.7,600
147,90.66,90.68,90.66,90.66,2400
148,90.6425,90.66,90.64,90.66,900
149,90.71,90.72,90.64,90.64,3100
150,90.68,90.7,90.64,90.7,3218
151,90.77,90.81,90.68,90.68,4239
152,90.8,90.82,90.75,90.76,3066
153,90.8,90.82,90.8,90.81,1900
154,90.76,90.79,90.76,90.79,1398
155,90.79,90.8196,90.74,90.75,1930
156,90.88,90.89,90.79,90.79,5900
157,90.9,90.92,90.88,90.88,4100
158,90.99,91,90.9,90.9,4706
159,90.9925,91,90.96,90.97,9370
160,90.95,90.99,90.95,90.99,2589
161,91.03,91.06,90.96,90.96,7839
162,90.97,91.03,90.97,91.03,4636
163,91,91.01,90.96,90.97,3500
164,91.06,91.06,91.02,91.02,4900
165,90.98,91.02,90.98,91.02,3002
166,90.9,90.95,90.89,90.93,7193
167,90.89,90.94,90.89,90.91,4200
168,90.94,90.97,90.9002,90.92,5415
169,90.95,90.97,90.9,90.96,8864
170,90.95,90.97,90.9,90.94,3990
171,90.99,91.02,90.94,90.94,1500
172,91,91,90.98,91,1900
173,91.08,91.08,90.96,90.98,7595
174,91.13,91.13,91.08,91.08,6088
175,91.1,91.135,91.09,91.11,3375
176,91.04,91.12,91.01,91.1,3155
177,91,91.02,91,91.01,1400
178,90.94,91.04,90.94,90.99,4017
179,90.92,90.92,90.92,90.92,100
180,90.89,90.94,90.89,90.94,1401
181,90.9,90.94,90.9,90.93,2517
182,90.9,90.93,90.88,90.919,3900
183,90.86,90.9,90.86,90.88,1980
184,90.84,90.8501,90.81,90.8501,3375
185,90.9358,90.9358,90.85,90.85,2800
186,90.93,90.93,90.89,90.91,1670
187,90.93,90.95,90.92,90.92,837
188,90.92,90.93,90.91,90.91,500
189,90.96,90.99,90.91,90.91,1928
190,90.97,90.97,90.94,90.95,3206
191,90.94,90.9699,90.92,90.9699,2217
192,90.99,90.99,90.95,90.95,2900
193,91,91.02,90.99,91,1300
194,91,91.03,91,91.02,1150
195,91.01,91.03,91,91,2900
196,91,91.02,90.99,91.01,1911
197,90.96,91,90.92,91,4412
198,90.93,90.94,90.93,90.94,300
199,90.94,90.97,90.92,90.93,3210
200,90.945,90.945,90.94,90.94,300
201,90.99,91,90.96,90.96,3155
204,91,91.05,91,91.02,4527
205,91.03,91.04,91,91.01,3003
206,91.03,91.05,91.03,91.03,1244
207,91.07,91.07,91.01,91.03,2750
208,91.09,91.09,91.07,91.08,1250
209,91.09,91.09,91.08,91.09,1500
210,91.08,91.12,91.08,91.08,2900
211,91.14,91.14,91.08,91.109,4257
212,91.14,91.15,91.14,91.15,200
213,91.11,91.15,91.1,91.14,5988
214,91.05,91.09,91.05,91.09,1100
215,91.01,91.06,91.01,91.06,2797
216,91,91.04,90.98,91.0198,4225
217,91.005,91.01,90.97,90.97,1800
218,91.04,91.05,91.02,91.02,1900
219,91.015,91.03,91,91.03,950
220,91.03,91.03,91,91.03,600
221,91.04,91.04,91.02,91.04,1400
222,91.01,91.03,91.01,91.03,2292
223,90.99,91.01,90.97,91,2095
224,91,91,90.95,90.98,2500
225,91.03,91.04,91,91,1300
226,91.07,91.07,91.04,91.05,2346
227,91.04,91.08,91,91.06,2504
228,91.06,91.06,91.02,91.02,1850
229,91.03,91.0659,91.03,91.0659,822
230,91.03,91.06,91.03,91.06,525
231,91.03,91.05,91.02,91.04,1850
232,91.01,91.02,91.01,91.02,400
233,91.0155,91.0155,91.01,91.01,520
234,91.03,91.03,91,91,700
235,91.015,91.015,91.015,91.015,100
236,90.96,91,90.96,91,1560
237,90.99,90.99,90.96,90.975,6540
238,90.93,90.98,90.93,90.98,2387
239,90.94,90.94,90.92,90.93,3100
240,90.9295,90.93,90.92,90.92,2000
241,90.94,90.94,90.925,90.925,2528
242,90.99,90.994,90.96,90.97,1600
243,90.99,90.99,90.97,90.99,2874
244,90.97,90.97,90.97,90.97,1100
245,90.99,90.99,90.96,90.96,1700
246,90.97,90.98,90.97,90.98,300
247,90.94,90.97,90.94,90.97,1660
248,90.93,90.95,90.92,90.935,3325
249,90.94,90.94,90.93,90.93,1200
250,90.94,90.95,90.93,90.95,725
251,90.92,90.95,90.92,90.94,4350
252,90.9631,91,90.91,90.91,7345
253,91.05,91.09,90.96,90.96,10247
254,91.07,91.07,91.02,91.05,3540
255,91.12,91.12,91.08,91.1,1657
256,91.1,91.13,91.1,91.12,1650
257,91.14,91.15,91.11,91.11,2207
258,91.13,91.15,91.13,91.1365,915
259,91.16,91.18,91.14,91.14,3842
260,91.14,91.169,91.11,91.1581,3675
261,91.14,91.14,91.12,91.13,1700
262,91.12,91.12,91.11,91.12,1300
263,91.105,91.12,91.1,91.1,2255
264,91.04,91.105,91.04,91.105,4042
265,91.065,91.065,91.03,91.03,2961
266,91.07,91.07,91.06,91.06,1300
267,91.05,91.075,91.045,91.075,3353
268,91.13,91.15,91.07,91.0716,7610
269,91.13,91.15,91.1,91.15,5426
270,91.15,91.16,91.12,91.13,4500
271,91.115,91.19,91.11,91.16,4071
272,91.13,91.13,91.13,91.13,100
273,91.16,91.16,91.12,91.12,3990
274,91.1501,91.17,91.1501,91.17,1618
275,91.17,91.17,91.14,91.153,2230
276,91.16,91.17,91.16,91.17,300
277,91.19,91.19,91.17,91.18,5400
278,91.2,91.2,91.17,91.19,5719
279,91.2,91.205,91.17,91.2,8667
280,91.19,91.2032,91.18,91.2,4671
281,91.15,91.19,91.15,91.19,2898
282,91.19,91.19,91.14,91.15,13906
283,91.18,91.19,91.16,91.17,4200
284,91.19,91.2,91.18,91.19,1980
285,91.16,91.1801,91.16,91.1801,2149
286,91.19,91.2,91.14,91.18,11800
287,91.21,91.21,91.19,91.2,2553
288,91.2,91.22,91.2,91.22,2700
289,91.21,91.215,91.2,91.2,1000
290,91.15,91.22,91.15,91.22,2405
291,91.17,91.2,91.17,91.18,1112
292,91.21,91.21,91.185,91.1971,1084
293,91.2,91.23,91.19,91.22,7070
294,91.15,91.19,91.15,91.19,2953
295,91.16,91.165,91.15,91.15,1401
296,91.235,91.235,91.16,91.16,5840
297,91.245,91.2695,91.235,91.255,4550
298,91.215,91.28,91.2,91.23,7560
299,91.25,91.25,91.21,91.21,2792
300,91.27,91.27,91.24,91.25,1400
301,91.23,91.26,91.23,91.26,3368
302,91.225,91.2339,91.22,91.2339,730
303,91.22,91.23,91.2,91.21,3700
304,91.19,91.21,91.19,91.21,1501
305,91.14,91.18,91.14,91.18,2330
306,91.13,91.16,91.125,91.14,2168
307,91.19,91.19,91.14,91.14,2869
308,91.2,91.22,91.18,91.18,1800
309,91.22,91.22,91.19,91.2035,2200
310,91.23,91.23,91.21,91.21,2060
311,91.2699,91.2699,91.23,91.24,2860
312,91.2389,91.27,91.2389,91.27,7950
313,91.23,91.24,91.22,91.23,1900
314,91.24,91.24,91.21,91.21,2250
315,91.23,91.23,91.23,91.23,771
316,91.21,91.23,91.21,91.23,1317
317,91.2,91.21,91.2,91.21,600
318,91.14,91.21,91.14,91.1925,6092
319,91.13,91.14,91.1208,91.1208,3197
320,91.13,91.14,91.13,91.135,3826
321,91.09,91.135,91.09,91.135,5699
322,91.07,91.09,91.05,91.09,2200
323,91.065,91.07,91.055,91.055,2018
324,91.05,91.06,91.05,91.06,1500
325,91.08,91.08,91.06,91.06,3350
326,91.08,91.09,91.08,91.08,2020
327,91.0975,91.11,91.09,91.1,6140
328,91.03,91.105,91.03,91.105,4919
329,91.0297,91.0325,91.01,91.03,1434
330,91.01,91.02,91.01,91.015,2849
331,91.0658,91.0658,91.01,91.01,2557
332,91.09,91.09,91.06,91.06,2100
333,91.12,91.12,91.08,91.08,600
334,91.03,91.1,91.03,91.1,4602
335,91.11,91.11,91.02,91.03,5039
336,91.11,91.12,91.09,91.09,1442
337,91.13,91.15,91.1,91.11,4300
338,91.145,91.17,91.1,91.11,10544
339,91.11,91.13,91.1,91.13,12784
340,91.13,91.14,91.11,91.11,4413
341,91.09,91.13,91.09,91.13,4358
342,91.07,91.11,91.07,91.09,5098
343,91.06,91.07,91.055,91.07,2656
344,91.08,91.08,91.03,91.05,9504
345,91.1,91.1,91.07,91.07,2772
346,91.12,91.12,91.1,91.11,1800
347,91.11,91.13,91.1,91.11,8011
348,91.1,91.11,91.09,91.11,3700
349,91.115,91.125,91.09,91.09,7190
350,91.0875,91.12,91.085,91.11,9583
351,91.1,91.12,91.08,91.08,5880
352,91.09,91.11,91.09,91.105,900
353,91.11,91.12,91.09,91.12,1700
354,91.09,91.12,91.09,91.1115,5502
355,91.07,91.11,91.07,91.09,5845
356,91.15,91.17,91.09,91.09,11989
357,91.185,91.19,91.15,91.15,7574
358,91.14,91.19,91.14,91.185,10751
359,91.14,91.14,91.11,91.14,4322
360,91.1,91.15,91.09,91.13,9604
361,91.13,91.15,91.1,91.11,2512
362,91.15,91.17,91.13,91.15,3785
363,91.17,91.18,91.16,91.16,3500
364,91.13,91.175,91.13,91.17,6596
365,91.12,91.1544,91.12,91.15,5460
366,91.065,91.14,91.06,91.125,10489
367,91.08,91.08,91.06,91.06,4608
368,91.06,91.09,91.05,91.071,6833
369,91.07,91.08,91.07,91.07,2626
370,91.03,91.07,91.03,91.07,7638
371,90.98,91.03,90.97,91.03,8858
372,91.005,91.01,90.97,90.972,5900
373,91.08,91.08,91.005,91.01,6002
374,91.08,91.08,91.07,91.07,4343
375,91.155,91.17,91.09,91.09,8201
376,91.19,91.19,91.155,91.17,4500
377,91.235,91.24,91.195,91.2,2780
378,91.225,91.24,91.22,91.235,9391
379,91.25,91.26,91.225,91.225,6869
380,91.18,91.26,91.17,91.25,10320
381,91.135,91.18,91.13,91.16,7430
382,91.155,91.155,91.11,91.13,9171
383,91.1515,91.16,91.15,91.16,3006
384,91.2,91.2,91.155,91.155,7722
385,91.18,91.22,91.18,91.21,13268
386,91.22,91.23,91.16,91.18,15857
387,91.23,91.23,91.21,91.225,7919
388,91.2,91.23,91.18,91.22,17561
389,91.21,91.22,91.19,91.2,23007
390,91.21,91.22,91.18,91.2,42291
