PPG,PPG Industries,Materials,8,Specialty Chemicals,27466846919,1193514
a1495805400,106.72,106.72,106.72,106.72,7240
1,106.91,106.91,106.48,106.65,1202
2,107.38,107.39,106.91,106.91,5600
3,107.35,107.37,107.24,107.29,1100
5,107.3,107.3,107.29,107.29,600
6,107.67,107.67,107.27,107.28,13936
7,107.65,107.65,107.34,107.34,290
8,107.4,107.65,107.4,107.4,300
9,107.5,107.515,107.39,107.39,700
13,107.45,107.62,107.42,107.52,5430
14,107.43,107.46,107.43,107.46,300
15,107.42,107.52,107.42,107.47,1700
16,107.38,107.43,107.38,107.43,500
17,107.457,107.51,107.43,107.43,1400
18,107.53,107.54,107.53,107.53,1000
19,107.565,107.57,107.52,107.55,2251
21,107.54,107.57,107.54,107.56,800
22,107.51,107.53,107.43,107.53,2228
23,107.51,107.51,107.51,107.51,100
24,107.6,107.6,107.5101,107.5469,1513
25,107.66,107.66,107.58,107.58,900
26,107.6,107.6,107.49,107.55,2050
27,107.59,107.6,107.59,107.6,300
29,107.5254,107.5254,107.5254,107.5254,800
30,107.34,107.55,107.34,107.55,1600
31,107.379,107.52,107.379,107.4,1260
32,107.43,107.46,107.43,107.45,300
33,107.41,107.43,107.38,107.4,1100
34,107.37,107.37,107.37,107.37,100
35,107.34,107.36,107.34,107.36,300
37,107.3,107.3,107.28,107.28,200
38,107.17,107.3,107.17,107.3,900
40,107.2,107.2,107.09,107.13,1000
41,107.14,107.21,107.1,107.21,6586
42,107.2,107.2,107.15,107.15,1200
43,107.2,107.21,107.18,107.2,3000
44,107.2,107.22,107.2,107.2,1200
45,107.26,107.26,107.2,107.2,1000
46,107.2,107.26,107.19,107.25,2701
47,107.21,107.21,107.2,107.21,1100
48,107.24,107.24,107.23,107.23,1300
49,107.21,107.23,107.2,107.23,2300
50,107.22,107.22,107.21,107.21,1300
51,107.27,107.27,107.2,107.21,3462
52,107.25,107.25,107.25,107.25,200
53,107.2726,107.2726,107.2,107.23,3415
54,107.27,107.27,107.27,107.27,100
55,107.3,107.31,107.3,107.3,1200
56,107.3,107.31,107.3,107.3,2000
57,107.3,107.3,107.3,107.3,100
58,107.3,107.3,107.3,107.3,300
59,107.3,107.3,107.29,107.29,200
60,107.3,107.3,107.2749,107.28,1177
61,107.3493,107.35,107.2932,107.2932,2444
62,107.355,107.355,107.355,107.355,100
63,107.31,107.34,107.29,107.34,1402
64,107.3,107.3,107.26,107.28,1400
65,107.376,107.376,107.31,107.31,1554
67,107.34,107.35,107.34,107.34,600
68,107.3,107.34,107.3,107.34,1000
69,107.33,107.33,107.3,107.32,800
70,107.29,107.31,107.29,107.31,1207
71,107.35,107.35,107.3,107.3,1900
72,107.37,107.37,107.36,107.36,600
73,107.37,107.38,107.37,107.38,300
74,107.325,107.325,107.325,107.325,100
75,107.34,107.34,107.3032,107.325,1800
77,107.3,107.32,107.3,107.32,300
78,107.335,107.335,107.335,107.335,100
79,107.3,107.31,107.3,107.31,913
81,107.27,107.32,107.27,107.32,2370
82,107.21,107.21,107.21,107.21,100
84,107.15,107.23,107.15,107.23,1580
86,107.08,107.14,107.08,107.14,900
87,107.08,107.08,107.08,107.08,100
88,107.1,107.11,107.1,107.11,600
89,107.1,107.1115,107.1,107.1115,200
90,107.09,107.1,107.08,107.1,1302
91,107.16,107.16,107.11,107.11,2400
92,107.16,107.1789,107.15,107.1789,1153
93,107.13,107.13,107.13,107.13,100
94,107.15,107.15,107.11,107.12,800
95,107.17,107.17,107.17,107.17,200
96,107.182,107.2,107.182,107.192,533
97,107.205,107.22,107.205,107.22,400
98,107.2,107.21,107.19,107.21,2000
99,107.24,107.24,107.19,107.19,1800
100,107.28,107.28,107.28,107.28,100
103,107.23,107.25,107.22,107.25,1000
104,107.2,107.2299,107.2,107.2,720
105,107.2,107.2,107.19,107.19,201
106,107.2,107.2,107.2,107.2,300
107,107.2,107.2,107.19,107.2,2771
108,107.17,107.1852,107.17,107.1852,600
109,107.155,107.17,107.155,107.16,600
110,107.12,107.13,107.11,107.12,1435
111,107.18,107.18,107.11,107.11,3700
112,107.2001,107.2001,107.2001,107.2001,140
113,107.19,107.22,107.19,107.22,908
115,107.18,107.18,107.18,107.18,100
116,107.21,107.21,107.21,107.21,300
117,107.22,107.22,107.21,107.21,1302
118,107.245,107.25,107.22,107.23,600
119,107.26,107.26,107.26,107.26,100
120,107.24,107.26,107.24,107.25,1090
121,107.24,107.26,107.24,107.25,1500
122,107.26,107.26,107.22,107.22,1122
123,107.24,107.25,107.24,107.25,401
124,107.2,107.23,107.2,107.23,200
125,107.21,107.2269,107.2,107.2269,1017
126,107.16,107.19,107.16,107.19,700
127,107.15,107.16,107.15,107.16,200
128,107.15,107.15,107.15,107.15,100
130,107.11,107.14,107.11,107.14,400
131,107.15,107.15,107.1,107.1,3138
132,107.17,107.17,107.15,107.15,400
133,107.15,107.16,107.15,107.16,1056
135,107.15,107.15,107.14,107.15,2400
136,107.15,107.15,107.15,107.15,300
137,107.14,107.16,107.14,107.15,2693
138,107.18,107.18,107.15,107.15,2095
139,107.145,107.19,107.145,107.17,1491
140,107.1489,107.1489,107.1489,107.1489,500
141,107.11,107.13,107.11,107.13,600
142,107.0862,107.09,107.08,107.09,711
143,107.05,107.07,107.05,107.07,300
145,107.02,107.02,107.01,107.02,2319
146,107.05,107.05,107.0243,107.0243,1636
147,107.135,107.135,107.07,107.07,900
148,107.12,107.12,107.12,107.12,601
151,107.15,107.15,107.09,107.09,1100
154,107.17,107.1832,107.17,107.1832,855
155,107.16,107.17,107.145,107.17,1001
156,107.13,107.14,107.11,107.13,2000
157,107.12,107.12,107.12,107.12,100
158,107.15,107.15,107.14,107.14,200
159,107.12,107.12,107.12,107.12,100
161,107.16,107.16,107.14,107.14,1000
162,107.15,107.15,107.15,107.15,100
163,107.16,107.16,107.15,107.15,200
164,107.17,107.17,107.15,107.15,700
165,107.145,107.16,107.145,107.16,400
166,107.11,107.13,107.11,107.13,382
167,107.12,107.12,107.12,107.12,100
168,107.12,107.129,107.12,107.12,864
169,107.13,107.14,107.115,107.13,1420
172,107.07,107.11,107.07,107.11,935
173,107.07,107.084,107.07,107.07,574
174,107.05,107.07,107.05,107.07,1037
175,107.07,107.07,107.04,107.04,1443
176,107.07,107.08,107.07,107.07,300
177,107.06,107.06,107.06,107.06,200
179,107.095,107.095,107.07,107.07,1200
181,107.07,107.08,107.07,107.08,500
182,107.05,107.06,107.05,107.06,200
183,107.05,107.05,107.05,107.05,200
184,107.07,107.07,107.04,107.04,972
185,107.085,107.085,107.085,107.085,100
186,107.12,107.12,107.12,107.12,100
187,107.12,107.1408,107.12,107.13,1885
188,107.12,107.12,107.12,107.12,200
189,107.11,107.11,107.11,107.11,200
190,107.13,107.13,107.12,107.12,801
191,107.13,107.1596,107.13,107.14,1705
193,107.12,107.12,107.12,107.12,212
194,107.13,107.1361,107.1248,107.1248,1200
195,107.13,107.14,107.11,107.13,1100
196,107.12,107.1235,107.12,107.1235,1100
197,107.11,107.12,107.07,107.12,3626
198,107.12,107.12,107.11,107.11,300
199,107.11,107.12,107.11,107.12,300
203,107.12,107.12,107.115,107.115,200
204,107.1,107.12,107.1,107.12,200
205,107.11,107.11,107.1,107.1,300
206,107.12,107.12,107.1,107.1,700
207,107.2,107.21,107.13,107.13,1380
208,107.18,107.22,107.18,107.21,600
209,107.18,107.19,107.18,107.19,500
210,107.17,107.17,107.17,107.17,200
212,107.16,107.16,107.16,107.16,100
213,107.11,107.11,107.11,107.11,100
214,107.125,107.14,107.12,107.14,500
215,107.14,107.14,107.125,107.125,362
216,107.1,107.125,107.1,107.125,500
217,107.12,107.12,107.12,107.12,900
218,107.12,107.12,107.1,107.11,975
219,107.17,107.18,107.14,107.14,1000
220,107.17,107.17,107.17,107.17,100
221,107.19,107.19,107.17,107.18,1200
222,107.16,107.18,107.15,107.18,1285
223,107.18,107.18,107.16,107.16,400
226,107.205,107.205,107.205,107.205,100
227,107.19,107.21,107.19,107.21,629
229,107.17,107.18,107.17,107.18,300
230,107.16,107.19,107.16,107.17,1600
231,107.16,107.16,107.14,107.14,200
233,107.15,107.16,107.15,107.16,300
234,107.16,107.16,107.16,107.16,200
235,107.16,107.16,107.145,107.145,700
236,107.1,107.15,107.095,107.15,2353
237,107.1,107.1,107.07,107.07,800
238,107.11,107.12,107.1,107.1,900
239,107.112,107.112,107.1,107.1,900
240,107.135,107.135,107.13,107.13,400
241,107.15,107.15,107.15,107.15,100
242,107.15,107.1529,107.14,107.15,541
243,107.17,107.17,107.17,107.17,100
244,107.14,107.1598,107.14,107.1598,300
246,107.17,107.17,107.15,107.15,1100
247,107.14,107.16,107.14,107.16,419
248,107.15,107.15,107.15,107.15,100
249,107.1,107.127,107.1,107.12,700
250,107.1,107.1,107.1,107.1,200
251,107.11,107.11,107.1,107.1,1106
252,107.1,107.12,107.1,107.1,800
253,107.12,107.12,107.12,107.12,100
254,107.13,107.13,107.125,107.125,300
255,107.17,107.17,107.13,107.13,800
256,107.13,107.17,107.13,107.17,1100
257,107.13,107.13,107.13,107.13,200
258,107.13,107.13,107.12,107.12,700
260,107.1,107.125,107.1,107.125,200
261,107.1,107.1,107.08,107.08,300
263,107.11,107.12,107.09,107.09,1900
264,107.14,107.14,107.13,107.13,700
265,107.17,107.17,107.13,107.14,1600
266,107.21,107.21,107.1701,107.2,819
267,107.21,107.21,107.21,107.21,100
268,107.2,107.21,107.18,107.21,950
270,107.145,107.19,107.145,107.18,1232
271,107.15,107.15,107.15,107.15,200
272,107.16,107.17,107.16,107.16,700
273,107.1385,107.17,107.1385,107.17,600
274,107.145,107.159,107.145,107.159,1015
275,107.15,107.1644,107.135,107.15,2410
276,107.18,107.18,107.16,107.16,300
277,107.15,107.18,107.14,107.18,7989
278,107.16,107.165,107.15,107.15,1300
279,107.14,107.15,107.14,107.15,200
280,107.16,107.16,107.15,107.15,2058
281,107.16,107.16,107.16,107.16,100
283,107.17,107.18,107.17,107.1736,1536
284,107.17,107.17,107.16,107.16,300
285,107.1301,107.16,107.13,107.16,327
287,107.11,107.11,107.1,107.1,1500
288,107.124,107.13,107.111,107.12,1608
289,107.15,107.15,107.13,107.13,500
290,107.15,107.17,107.15,107.15,799
291,107.15,107.15,107.13,107.1441,832
292,107.15,107.15,107.14,107.14,300
293,107.14,107.16,107.14,107.15,1265
294,107.16,107.16,107.1506,107.16,1000
295,107.1508,107.17,107.1401,107.1524,1659
296,107.17,107.17,107.16,107.16,200
297,107.14,107.15,107.14,107.15,600
298,107.14,107.15,107.13,107.13,1200
299,107.18,107.18,107.15,107.15,312
301,107.17,107.17,107.17,107.17,182
302,107.19,107.19,107.175,107.175,200
303,107.19,107.19,107.19,107.19,200
304,107.14,107.1786,107.14,107.1786,1402
305,107.11,107.14,107.11,107.14,700
306,107.09,107.11,107.09,107.11,500
307,107.1,107.1,107.1,107.1,100
308,107.13,107.13,107.11,107.11,1000
309,107.13,107.14,107.13,107.14,200
310,107.14,107.14,107.13,107.13,300
311,107.11,107.13,107.11,107.13,1158
313,107.09,107.09,107.07,107.07,1200
314,107.08,107.085,107.08,107.085,300
315,107.08,107.09,107.08,107.08,300
316,107.085,107.085,107.08,107.08,731
317,107.0789,107.08,107.07,107.08,1110
318,107.05,107.06,107.04,107.06,998
319,107.08,107.08,107.06,107.06,900
320,107.085,107.085,107.085,107.085,100
321,107.03,107.08,107.03,107.08,1700
324,107.11,107.11,107.04,107.04,2800
325,107.16,107.16,107.16,107.16,600
326,107.17,107.174,107.14,107.174,402
327,107.17,107.17,107.155,107.16,907
328,107.1799,107.18,107.1594,107.1594,2445
329,107.18,107.18,107.17,107.17,600
330,107.21,107.21,107.2,107.2,900
331,107.21,107.21,107.19,107.21,500
333,107.21,107.22,107.2,107.2,1812
334,107.22,107.22,107.2,107.2,2010
335,107.21,107.21,107.2,107.21,300
336,107.21,107.21,107.21,107.21,900
337,107.21,107.21,107.21,107.21,722
338,107.21,107.21,107.2,107.21,1968
339,107.21,107.22,107.2,107.21,1156
340,107.23,107.23,107.2,107.2,2355
341,107.26,107.28,107.23,107.23,1867
342,107.25,107.25,107.25,107.25,3203
344,107.25,107.26,107.25,107.25,2737
345,107.26,107.26,107.26,107.26,300
346,107.29,107.29,107.27,107.27,1206
347,107.295,107.31,107.28,107.28,1300
348,107.26,107.3,107.26,107.3,1000
349,107.25,107.25,107.25,107.25,200
350,107.3,107.3,107.24,107.25,3500
351,107.3264,107.3264,107.3,107.3,1100
352,107.31,107.31,107.3,107.31,900
353,107.29,107.29,107.29,107.29,500
354,107.28,107.31,107.28,107.3,1400
355,107.32,107.33,107.27,107.27,3760
356,107.32,107.33,107.32,107.33,400
357,107.31,107.31,107.31,107.31,100
358,107.29,107.32,107.29,107.31,1254
359,107.28,107.31,107.28,107.31,200
360,107.29,107.31,107.29,107.31,1106
361,107.29,107.29,107.29,107.29,100
362,107.3,107.3,107.28,107.3,2093
363,107.28,107.28,107.28,107.28,801
364,107.28,107.3,107.28,107.29,2600
365,107.29,107.29,107.28,107.28,900
366,107.3,107.31,107.29,107.3,820
367,107.31,107.31,107.29,107.3,1193
368,107.32,107.32,107.31,107.31,200
369,107.33,107.33,107.295,107.3,3250
370,107.32,107.33,107.32,107.33,800
371,107.31,107.3176,107.31,107.3176,1421
372,107.305,107.31,107.3,107.31,1300
373,107.3,107.305,107.3,107.3,1300
374,107.33,107.33,107.31,107.31,2283
375,107.31,107.33,107.31,107.33,5546
376,107.33,107.33,107.29,107.3,9592
377,107.36,107.38,107.32,107.325,2795
378,107.34,107.36,107.33,107.36,1800
379,107.35,107.36,107.335,107.34,2654
380,107.35,107.36,107.35,107.35,2833
381,107.32,107.35,107.31,107.35,13724
382,107.3,107.3,107.29,107.3,8626
383,107.29,107.3,107.29,107.3,10945
384,107.29,107.3,107.28,107.3,7275
385,107.27,107.29,107.27,107.29,3686
386,107.27,107.28,107.27,107.28,11372
387,107.27,107.28,107.27,107.27,5253
388,107.215,107.27,107.21,107.27,11415
389,107.24,107.24,107.2,107.215,13927
390,107.22,107.24,107.21,107.24,5492
