EOG,EOG Resources,Energy,3,Oil & Gas Exploration & Production,50110949318,3164484
a1504877400,87.945,87.945,87.7,87.87,26235
1,87.9,88.05,87.7,88.05,1500
2,87.93,87.98,87.88,87.92,6508
3,87.88,87.99,87.88,87.98,1551
4,87.92,88.07,87.74,87.75,9467
5,87.89,87.9799,87.89,87.9799,600
6,87.6725,87.79,87.67,87.77,3848
7,87.745,87.8,87.72,87.73,2600
8,87.65,87.73,87.61,87.73,8556
9,87.62,87.64,87.61,87.61,1300
10,87.65,87.71,87.63,87.63,2400
11,87.8,87.8,87.71,87.71,600
12,87.89,87.89,87.84,87.86,2225
13,87.84,87.86,87.83,87.86,400
14,87.84,87.84,87.84,87.84,700
15,87.885,87.89,87.86,87.86,400
16,87.88,87.94,87.8644,87.88,1514
17,87.97,87.99,87.9301,87.95,1000
18,87.845,87.93,87.83,87.93,2681
19,87.83,87.88,87.795,87.88,3000
20,87.83,87.84,87.81,87.82,2800
21,87.84,87.84,87.83,87.84,300
22,87.86,87.88,87.805,87.83,4464
23,87.8604,87.9,87.83,87.86,4585
24,87.82,87.85,87.775,87.83,7000
25,87.84,87.86,87.8,87.8,2553
26,87.83,87.85,87.76,87.8,11814
27,87.85,87.85,87.81,87.83,2100
28,87.84,87.92,87.84,87.86,2215
29,87.86,87.87,87.81,87.84,4600
30,87.865,87.89,87.8,87.87,3049
31,87.9,87.91,87.86,87.89,8714
32,87.82,87.9,87.82,87.9,7232
33,87.8429,87.85,87.81,87.82,3642
34,87.94,87.94,87.85,87.85,2400
35,87.89,87.96,87.85,87.96,7725
36,87.93,88.02,87.8725,87.885,5500
37,87.95,87.99,87.9,87.93,2660
38,87.92,87.98,87.895,87.98,2440
39,87.95,87.95,87.92,87.93,1000
40,87.85,87.94,87.85,87.92,8100
41,87.74,87.85,87.68,87.83,6234
42,87.7,87.72,87.65,87.71,3011
43,87.53,87.74,87.53,87.7,12523
44,87.59,87.59,87.52,87.56,11276
45,87.66,87.66,87.53,87.58,6882
46,87.64,87.67,87.605,87.65,7160
47,87.57,87.64,87.54,87.64,4874
48,87.445,87.58,87.42,87.57,8869
49,87.555,87.61,87.47,87.47,15802
50,87.47,87.58,87.42,87.57,17920
51,87.48,87.52,87.44,87.455,7491
52,87.555,87.56,87.459,87.47,19312
53,87.58,87.58,87.52,87.5699,3030
54,87.54,87.59,87.51,87.59,5643
55,87.5,87.54,87.47,87.54,6488
56,87.42,87.52,87.42,87.52,4376
57,87.51,87.51,87.3989,87.43,9303
58,87.6,87.6,87.45,87.49,9576
59,87.62,87.66,87.55,87.6,4503
60,87.58,87.66,87.58,87.62,1799
61,87.615,87.66,87.59,87.59,900
62,87.6,87.63,87.58,87.5986,4200
63,87.57,87.63,87.56,87.62,4891
64,87.52,87.58,87.51,87.57,8400
65,87.58,87.6,87.54,87.54,8282
66,87.58,87.58,87.54,87.58,7386
67,87.495,87.6,87.49,87.58,14424
68,87.41,87.52,87.41,87.49,6300
69,87.32,87.44,87.32,87.41,8202
70,87.255,87.34,87.25,87.34,6450
71,87.17,87.24,87.15,87.23,10647
72,87.15,87.18,87.13,87.18,5700
73,87.23,87.23,87.13,87.13,5600
74,87.32,87.32,87.21,87.22,4462
75,87.31,87.31,87.26,87.28,2600
76,87.245,87.31,87.23,87.31,1600
77,87.26,87.27,87.24,87.245,2300
78,87.255,87.28,87.215,87.2733,3656
79,87.21,87.23,87.2,87.2271,7843
80,87.16,87.2,87.13,87.2,1500
81,87.2054,87.2054,87.121,87.121,9711
82,87.18,87.22,87.18,87.185,3100
83,87.16,87.18,87.11,87.18,5168
84,87.04,87.16,87.04,87.15,2900
85,87.04,87.08,87.04,87.05,4300
86,87.02,87.06,87.02,87.06,700
87,87.015,87.05,87.01,87.02,13799
88,86.89,87,86.87,87,5204
89,86.88,86.92,86.87,86.9,11987
90,87.005,87.01,86.88,86.88,10352
91,86.99,87.005,86.9684,86.99,3735
92,87,87.01,86.96,86.99,3342
93,87.13,87.13,87.01,87.01,4400
94,87.17,87.17,87.15,87.15,1700
95,87.17,87.19,87.17,87.18,900
96,87.115,87.19,87.115,87.17,6000
97,87.18,87.18,87.1075,87.1075,2400
98,87.185,87.24,87.165,87.2,3250
99,87.22,87.22,87.195,87.2,1350
100,87.1956,87.22,87.1956,87.22,1700
101,87.145,87.21,87.13,87.21,2900
102,87.1548,87.17,87.12,87.1375,4200
103,87.18,87.21,87.14,87.14,2400
104,87.2,87.24,87.18,87.2,3184
105,87.18,87.21,87.16,87.21,5250
106,87.17,87.18,87.155,87.18,3900
107,87.065,87.155,87.06,87.14,4395
108,87.06,87.11,87.05,87.08,9596
109,87.04,87.05,87.02,87.05,8100
110,87.045,87.09,87.03,87.04,5768
111,87.09,87.11,87.05,87.05,9700
112,87.095,87.12,87.08,87.09,5874
113,87.06,87.1,87.06,87.08,4482
114,87.07,87.09,87.06,87.07,4697
115,87.06,87.08,87.05,87.08,4444
116,87.04,87.11,87.04,87.08,6850
117,87.0214,87.04,87.01,87.02,4830
118,87.01,87.03,87,87.03,3671
119,87.01,87.03,86.97,86.995,4000
120,87.015,87.03,86.9925,86.9925,2039
121,87.12,87.12,87.0075,87.0075,6990
122,87.11,87.13,87.075,87.1,4116
123,87.135,87.15,87.09,87.13,3605
124,87.13,87.16,87.1102,87.135,2930
125,87.22,87.23,87.13,87.13,3100
126,87.25,87.28,87.205,87.22,2609
127,87.245,87.27,87.2413,87.245,700
128,87.18,87.27,87.18,87.27,2934
129,87.08,87.18,87.06,87.18,2329
130,87.08,87.1,87.06,87.07,2735
131,87.07,87.09,87.05,87.06,2000
132,87.09,87.11,87.08,87.09,2933
133,87.15,87.16,87.06,87.06,4450
134,87.1,87.15,87.08,87.12,2258
135,87.03,87.1,87.03,87.08,2064
136,87.09,87.09,87.03,87.03,1967
137,87.01,87.09,87.01,87.04,2467
138,86.98,87.025,86.97,87.025,2463
139,86.96,86.99,86.95,86.98,1500
140,87.005,87.005,86.92,86.94,4968
141,87.09,87.09,87.02,87.02,1400
142,87.03,87.07,87.02,87.06,3656
143,87,87.08,86.97,87.06,2785
144,86.93,86.98,86.93,86.97,1433
145,86.91,86.94,86.91,86.92,1750
146,86.98,86.98,86.92,86.92,2250
147,86.96,86.98,86.94,86.98,1952
148,86.955,86.955,86.95,86.95,300
149,86.93,86.97,86.93,86.96,1300
150,86.9,86.97,86.88,86.97,1300
151,86.905,86.94,86.885,86.9,3510
152,86.96,86.96,86.9,86.93,2250
153,86.93,86.95,86.93,86.94,1648
154,86.91,86.95,86.91,86.95,698
155,86.9,86.91,86.85,86.89,4974
156,86.95,86.95,86.86,86.88,2200
157,86.891,86.91,86.85,86.91,2354
158,86.895,86.92,86.895,86.9,700
159,86.93,86.93,86.8971,86.92,600
160,86.94,86.94,86.93,86.93,300
161,86.92,86.93,86.92,86.93,374
162,86.93,86.93,86.93,86.93,300
163,86.945,86.945,86.91,86.93,1498
164,86.95,86.96,86.95,86.96,300
165,86.905,86.97,86.89,86.97,2283
166,86.89,86.92,86.87,86.92,1691
167,86.89,86.89,86.89,86.89,200
168,86.87,86.88,86.84,86.87,2734
169,86.88,86.91,86.8785,86.8785,2800
170,86.8,86.92,86.8,86.92,1500
171,86.83,86.83,86.801,86.81,1917
172,86.76,86.86,86.74,86.86,2403
173,86.75,86.76,86.74,86.74,900
174,86.76,86.77,86.735,86.74,2350
175,86.7342,86.78,86.73,86.78,2967
176,86.75,86.75,86.72,86.72,1749
177,86.74,86.79,86.7,86.75,3000
178,86.79,86.79,86.76,86.76,1300
179,86.8,86.8,86.78,86.78,200
180,86.8,86.81,86.77,86.785,800
181,86.78,86.78,86.74,86.76,3429
182,86.805,86.81,86.78,86.78,1500
183,86.85,86.85,86.82,86.82,905
184,86.91,86.91,86.82,86.84,2200
185,86.88,86.91,86.87,86.91,1950
186,86.87,86.89,86.865,86.865,2300
187,86.84,86.88,86.84,86.84,1400
188,86.84,86.86,86.83,86.86,1250
189,86.87,86.89,86.835,86.85,3437
190,86.84,86.88,86.84,86.88,1500
191,86.845,86.88,86.84,86.855,3000
192,86.815,86.85,86.81,86.84,1900
193,86.8024,86.83,86.8024,86.83,1700
194,86.81,86.81,86.7878,86.8,2542
195,86.83,86.83,86.81,86.81,1400
196,86.79,86.83,86.79,86.83,901
197,86.77,86.79,86.77,86.79,800
198,86.81,86.81,86.76,86.77,3979
199,86.85,86.85,86.81,86.84,10064
200,86.83,86.85,86.81,86.85,5048
201,86.81,86.86,86.81,86.86,1000
202,86.85,86.85,86.81,86.81,7779
203,86.84,86.87,86.84,86.86,3090
204,86.8,86.82,86.8,86.82,1400
205,86.82,86.83,86.8,86.81,3983
206,86.84,86.88,86.81,86.81,20311
207,86.79,86.83,86.79,86.83,6960
208,86.81,86.81,86.75,86.79,63888
209,86.81,86.84,86.81,86.82,20595
210,86.75,86.8,86.74,86.8,4114
211,86.69,86.76,86.67,86.74,5980
212,86.66,86.7,86.65,86.7,4619
213,86.59,86.64,86.59,86.64,4936
214,86.655,86.66,86.561,86.561,7175
215,86.68,86.68,86.65,86.67,7800
216,86.64,86.68,86.6,86.675,11216
217,86.66,86.66,86.63,86.65,3150
218,86.61,86.65,86.61,86.65,2900
219,86.55,86.63,86.54,86.63,5410
220,86.57,86.62,86.54,86.54,2900
221,86.57,86.59,86.52,86.59,3944
222,86.61,86.61,86.52,86.58,4184
223,86.68,86.71,86.605,86.62,27386
224,86.66,86.67,86.63,86.66,2076
225,86.6,86.66,86.6,86.66,3489
226,86.53,86.6,86.53,86.6,2500
227,86.38,86.5,86.38,86.5,4324
228,86.45,86.52,86.38,86.38,7900
229,86.48,86.52,86.47,86.47,15416
230,86.5,86.5,86.44,86.5,2846
231,86.49,86.56,86.46,86.52,8407
232,86.605,86.62,86.48,86.48,7212
233,86.45,86.59,86.4399,86.59,17417
234,86.44,86.47,86.42,86.44,5352
235,86.45,86.47,86.44,86.45,800
236,86.39,86.43,86.39,86.43,1952
237,86.36,86.39,86.36,86.39,1884
238,86.35,86.37,86.3306,86.36,2440
239,86.3,86.37,86.29,86.35,10915
240,86.261,86.29,86.24,86.29,5222
241,86.29,86.29,86.24,86.26,1773
242,86.36,86.36,86.3,86.3,3340
243,86.41,86.41,86.3,86.33,7660
244,86.37,86.3882,86.34,86.3882,1299
245,86.37,86.37,86.37,86.37,100
246,86.375,86.38,86.355,86.3559,1468
247,86.35,86.39,86.34,86.39,3041
248,86.35,86.35,86.35,86.35,300
249,86.29,86.33,86.29,86.33,1394
250,86.33,86.34,86.32,86.32,1843
251,86.32,86.32,86.3,86.32,3293
252,86.32,86.33,86.3,86.3,850
253,86.29,86.32,86.29,86.3,444
254,86.26,86.28,86.2534,86.2734,1252
255,86.275,86.28,86.26,86.27,1351
256,86.285,86.31,86.26,86.275,70087
257,86.2507,86.28,86.25,86.26,3722
258,86.31,86.31,86.24,86.26,2450
259,86.22,86.27,86.19,86.27,2744
260,86.27,86.27,86.23,86.23,1800
261,86.24,86.26,86.24,86.25,8728
262,86.184,86.245,86.184,86.23,3224
263,86.15,86.18,86.15,86.18,2897
264,86.13,86.17,86.13,86.16,3496
265,86.12,86.12,86.08,86.09,9500
266,86.19,86.19,86.13,86.13,3129
267,86.2246,86.24,86.19,86.19,1550
268,86.24,86.25,86.23,86.25,700
269,86.3,86.3,86.23,86.255,2698
270,86.38,86.38,86.295,86.3,2733
271,86.345,86.37,86.34,86.37,3829
272,86.36,86.36,86.33,86.36,2339
273,86.41,86.41,86.37,86.37,1444
274,86.43,86.45,86.41,86.41,2073
275,86.38,86.44,86.38,86.44,1007
276,86.42,86.42,86.39,86.41,950
277,86.42,86.45,86.42,86.42,2743
278,86.38,86.39,86.38,86.39,800
279,86.35,86.36,86.35,86.36,1223
280,86.32,86.37,86.315,86.36,5738
281,86.31,86.32,86.3,86.31,2600
282,86.39,86.39,86.33,86.33,2510
283,86.38,86.43,86.38,86.39,2402
284,86.41,86.41,86.38,86.38,1322
285,86.4,86.44,86.39,86.42,1900
286,86.3732,86.39,86.3732,86.39,1995
287,86.31,86.38,86.3,86.37,3050
288,86.34,86.36,86.33,86.33,2401
289,86.35,86.3957,86.35,86.36,1937
290,86.35,86.35,86.35,86.35,100
291,86.34,86.35,86.32,86.32,10469
292,86.32,86.34,86.31,86.33,3792
293,86.34,86.35,86.3,86.34,19103
294,86.345,86.35,86.31,86.33,20043
295,86.4475,86.49,86.345,86.345,15637
296,86.38,86.45,86.38,86.45,4450
297,86.405,86.42,86.38,86.395,3000
298,86.36,86.395,86.36,86.39,816
299,86.38,86.39,86.37,86.38,1857
300,86.36,86.38,86.35,86.3771,4074
301,86.42,86.43,86.36,86.36,7836
302,86.47,86.47,86.44,86.44,1600
303,86.4332,86.4332,86.4332,86.4332,100
304,86.43,86.43,86.43,86.43,100
305,86.51,86.51,86.43,86.43,5345
306,86.5,86.524,86.5,86.52,830
307,86.55,86.55,86.515,86.515,2550
308,86.5564,86.57,86.55,86.57,2388
309,86.52,86.55,86.52,86.55,2498
310,86.49,86.5333,86.49,86.52,2999
311,86.48,86.48,86.46,86.46,1250
312,86.51,86.51,86.4746,86.48,5277
313,86.5,86.5,86.48,86.49,1681
314,86.51,86.52,86.49,86.5,2226
315,86.495,86.52,86.495,86.51,1336
316,86.49,86.49,86.49,86.49,149
317,86.58,86.58,86.47,86.47,9096
318,86.61,86.61,86.58,86.58,4736
319,86.605,86.62,86.59,86.61,2300
320,86.67,86.67,86.591,86.62,5250
321,86.67,86.67,86.64,86.65,4427
322,86.63,86.67,86.6,86.67,3300
323,86.635,86.65,86.62,86.63,3465
324,86.63,86.65,86.61,86.635,1566
325,86.64,86.66,86.6182,86.63,4751
326,86.63,86.64,86.63,86.64,2700
327,86.62,86.63,86.61,86.62,2967
328,86.595,86.61,86.59,86.61,800
329,86.62,86.64,86.595,86.595,10242
330,86.6775,86.69,86.62,86.62,1900
331,86.72,86.72,86.66,86.68,2250
332,86.73,86.73,86.715,86.715,1500
333,86.77,86.77,86.73,86.73,2716
334,86.76,86.78,86.75,86.78,5971
335,86.68,86.76,86.67,86.76,11335
336,86.685,86.69,86.67,86.68,5724
337,86.65,86.69,86.64,86.69,2960
338,86.73,86.73,86.64,86.65,3995
339,86.76,86.77,86.74,86.74,2600
340,86.79,86.79,86.75,86.77,4784
341,86.85,86.85,86.81,86.81,1300
342,86.8,86.86,86.8,86.86,2615
343,86.78,86.8,86.78,86.8,1105
344,86.77,86.78,86.755,86.77,6900
345,86.73,86.75,86.73,86.75,1201
346,86.745,86.745,86.705,86.725,4441
347,86.76,86.77,86.75,86.75,1800
348,86.77,86.78,86.76,86.77,1219
349,86.76,86.78,86.75,86.78,6028
350,86.72,86.755,86.72,86.755,4166
351,86.75,86.75,86.73,86.73,5611
352,86.78,86.78,86.73,86.76,5865
353,86.825,86.83,86.79,86.79,4339
354,86.81,86.83,86.77,86.82,11982
355,86.79,86.82,86.78,86.82,4399
356,86.75,86.761,86.75,86.76,1983
357,86.81,86.81,86.77,86.77,7523
358,86.84,86.85,86.8099,86.81,9689
359,86.77,86.83,86.765,86.83,3200
360,86.75,86.76,86.73,86.75,4018
361,86.74,86.74,86.69,86.735,10347
362,86.74,86.76,86.72,86.735,6200
363,86.7,86.74,86.66,86.74,9868
364,86.68,86.7,86.64,86.69,9800
365,86.68,86.69,86.67,86.68,5254
366,86.71,86.71,86.67,86.67,4510
367,86.7,86.725,86.7,86.705,5443
368,86.71,86.74,86.7,86.71,6503
369,86.715,86.72,86.705,86.71,6469
370,86.75,86.76,86.71,86.72,13581
371,86.75,86.79,86.75,86.76,26369
372,86.76,86.81,86.745,86.745,9463
373,86.78,86.79,86.725,86.76,8902
374,86.7899,86.79,86.775,86.79,8023
375,86.705,86.785,86.7,86.785,12702
376,86.76,86.76,86.67,86.69,18412
377,86.77,86.78,86.74,86.76,10664
378,86.83,86.83,86.75,86.77,9838
379,86.8,86.81,86.78,86.81,28031
380,86.81,86.85,86.8,86.8,6201
381,86.79,86.81,86.77,86.8,7508
382,86.8,86.84,86.7975,86.81,9008
383,86.785,86.7999,86.77,86.7999,11422
384,86.81,86.81,86.775,86.7809,9612
385,86.8,86.81,86.78,86.8,19584
386,86.775,86.79,86.77,86.79,6336
387,86.79,86.84,86.76,86.78,19368
388,86.78,86.81,86.75,86.79,14990
389,86.77,86.785,86.76,86.78,18068
390,86.78,86.82,86.76,86.77,27786
