EOG,EOG Resources,Energy,3,Oil & Gas Exploration & Production,48736704506,3251406
a1503667800,85.01,85.01,85.01,85.01,18550
1,84.906,85.01,84.9,84.9,450
2,85.09,85.09,84.99,84.99,1500
3,85.09,85.1,85.0101,85.0101,1483
4,84.7402,85.14,84.71,85.1,9355
5,84.96,84.96,84.6497,84.75,4881
6,84.78,84.9,84.78,84.9,985
7,84.555,84.74,84.491,84.74,5409
8,84.66,84.81,84.55,84.55,7206
9,84.64,84.78,84.64,84.66,11028
10,84.79,84.79,84.64,84.6696,8568
11,84.89,84.89,84.7,84.75,3600
12,84.87,84.94,84.775,84.92,2550
13,84.84,84.89,84.8,84.89,1305
14,84.82,84.87,84.7601,84.85,2403
15,84.76,84.81,84.66,84.81,3000
16,84.71,84.79,84.7,84.74,1800
17,84.7,84.79,84.67,84.73,5774
18,84.69,84.73,84.68,84.73,3035
19,84.72,84.74,84.66,84.7,2400
20,84.76,84.83,84.73,84.73,7900
21,84.76,84.77,84.7,84.7,5161
22,84.85,84.85,84.76,84.76,1900
23,84.84,84.85,84.79,84.84,1800
24,84.83,84.83,84.815,84.815,1968
25,84.81,84.88,84.778,84.87,2041
26,84.73,84.8009,84.73,84.8009,3100
27,84.745,84.79,84.72,84.78,2700
28,84.69,84.74,84.67,84.73,5764
29,84.69,84.73,84.69,84.72,1300
30,84.73,84.74,84.67,84.71,6200
31,84.86,84.86,84.73,84.74,2400
32,84.8248,84.9,84.8248,84.885,4093
33,84.84,84.89,84.83,84.86,1900
34,84.74,84.86,84.74,84.83,2100
35,84.76,84.76,84.7,84.71,2100
36,84.75,84.77,84.71,84.77,2094
37,84.95,84.95,84.75,84.75,7000
38,84.96,85.01,84.94,84.94,4348
39,84.95,84.97,84.95,84.97,1450
40,84.99,84.99,84.94,84.96,2100
41,84.98,85.08,84.98,85,4189
42,85.03,85.03,84.99,84.99,2600
43,84.96,85.05,84.96,85.04,3450
44,84.92,84.98,84.92,84.97,3658
45,84.95,85,84.91,84.91,5650
46,84.915,84.95,84.915,84.94,2721
47,84.99,84.99,84.98,84.98,500
48,85.04,85.05,85.01,85.01,3800
49,85.07,85.19,85.07,85.09,10343
50,85.13,85.14,85.09,85.1,3505
51,85.08,85.17,85.08,85.13,4290
52,84.985,85.07,84.96,85.05,5365
53,85,85.02,84.96,85.01,1800
54,85,85.03,84.99,85.01,3446
55,84.94,84.97,84.91,84.97,2161
56,84.93,84.9398,84.91,84.9398,1300
57,84.93,84.969,84.92,84.92,3135
58,85.03,85.03,84.9,84.93,6556
59,85.08,85.08,85,85.02,5253
60,85,85.08,85,85.06,3555
61,85.05,85.08,85,85.0376,8688
62,85.03,85.04,84.98,85,3802
63,85.035,85.06,85.02,85.03,2000
64,84.94,85.04,84.94,85.03,2000
65,84.94,84.94,84.9,84.93,2900
66,84.9548,84.96,84.94,84.96,1350
67,84.93,84.96,84.93,84.96,1990
68,84.88,84.91,84.86,84.905,5479
69,84.88,84.9,84.8686,84.87,1400
70,84.87,84.88,84.83,84.86,6256
71,84.89,84.91,84.87,84.87,1400
72,84.89,84.89,84.87,84.89,3398
73,84.88,84.905,84.87,84.88,6750
74,84.87,84.88,84.855,84.87,3200
75,84.89,84.89,84.86,84.88,6100
76,84.84,84.89,84.81,84.88,4280
77,84.83,84.88,84.82,84.83,15580
78,84.82,84.84,84.81,84.83,3660
79,84.8,84.83,84.8,84.83,3694
80,84.8,84.81,84.77,84.7951,4288
81,84.835,84.85,84.785,84.81,4400
82,84.835,84.84,84.7999,84.82,2131
83,84.835,84.835,84.79,84.82,4037
84,84.81,84.82,84.79,84.82,5330
85,84.8,84.81,84.77,84.81,3100
86,84.78,84.83,84.78,84.81,2800
87,84.85,84.85,84.8,84.8,3550
88,84.86,84.86,84.82,84.83,3024
89,84.87,84.87,84.84,84.85,2850
90,84.9,84.9,84.85,84.89,5150
91,84.85,84.89,84.83,84.89,1600
92,84.78,84.82,84.76,84.78,7000
93,84.76,84.78,84.7401,84.77,2550
94,84.8,84.8,84.73,84.76,5700
95,84.73,84.78,84.72,84.77,1298
96,84.74,84.755,84.73,84.73,1105
97,84.75,84.77,84.74,84.74,2977
98,84.81,84.81,84.75,84.75,1700
99,84.82,84.88,84.78,84.8,3300
100,84.84,84.84,84.77,84.82,2400
101,84.85,84.86,84.83,84.859,6143
102,84.82,84.89,84.82,84.84,4737
103,84.78,84.8,84.78,84.79,666
104,84.78,84.78,84.75,84.78,2700
105,84.8,84.81,84.73,84.76,2700
106,84.82,84.82,84.72,84.79,3490
107,84.8099,84.83,84.8,84.8,2941
108,84.85,84.85,84.79,84.79,4003
109,84.75,84.83,84.75,84.83,6248
110,84.76,84.8,84.75,84.75,3800
111,84.74,84.79,84.74,84.78,2500
112,84.76,84.79,84.74,84.74,2300
113,84.77,84.79,84.74,84.74,3200
114,84.8,84.8,84.75,84.76,1550
115,84.79,84.85,84.76,84.84,9610
116,84.815,84.87,84.78,84.82,4085
117,84.82,84.84,84.8,84.8,1600
118,84.84,84.85,84.8,84.85,3513
119,84.81,84.86,84.81,84.86,2508
120,84.86,84.86,84.81,84.81,3232
121,84.83,84.84,84.77,84.84,2400
122,84.85,84.85,84.81,84.81,900
123,84.89,84.89,84.86,84.86,1300
124,84.91,84.95,84.9,84.9,3940
125,84.96,84.96,84.89,84.89,2000
126,85.05,85.05,84.98,84.98,4800
127,85.06,85.09,85.0201,85.04,2600
128,85.08,85.11,85.07,85.07,3256
129,85.0966,85.14,85.0926,85.1,6300
130,85.15,85.15,85.12,85.13,5000
131,85.19,85.19,85.15,85.15,697
132,85.15,85.165,85.13,85.16,2549
133,85.15,85.15,85.12,85.13,2440
134,85.18,85.19,85.15,85.15,1800
135,85.2,85.22,85.18,85.18,3001
136,85.16,85.19,85.15,85.19,1620
137,85.06,85.14,85.05,85.14,4228
138,84.99,85.05,84.99,85.04,1812
139,85,85.02,84.99,85.01,3150
140,85.04,85.04,85.015,85.02,2464
141,85.01,85.04,85.01,85.0365,1023
142,84.97,85,84.97,85,2250
143,85.01,85.03,84.95,84.95,3700
144,84.96,85,84.96,85,1440
145,84.9804,84.99,84.94,84.95,3400
146,84.97,84.975,84.94,84.96,2495
147,84.99,84.99,84.92,84.96,6939
148,85.04,85.04,84.961,84.99,3321
149,85.02,85.02,85,85.01,2090
150,84.99,85.03,84.99,85.03,1900
151,85.01,85.01,84.98,84.98,3600
152,85.11,85.13,85.02,85.02,7841
153,85.09,85.12,85.07,85.11,1750
154,85.12,85.12,85.11,85.11,1400
155,85.15,85.15,85.11,85.11,2610
156,85.175,85.19,85.15,85.15,6550
157,85.19,85.19,85.17,85.17,2854
158,85.13,85.2,85.12,85.18,9994
159,85.12,85.15,85.11,85.14,3025
160,85.1,85.13,85.1,85.11,1700
161,85.07,85.11,85.065,85.1,3753
162,85.04,85.06,85.04,85.06,1321
163,85.09,85.1,85.04,85.05,6631
164,85.06,85.08,85.06,85.07,2012
165,85.07,85.07,85.02,85.05,2978
166,85.09,85.09,85.05,85.07,3610
167,85.09,85.11,85.09,85.09,1400
168,85.155,85.17,85.08,85.08,1918
169,85.12,85.155,85.11,85.155,2100
170,85.1,85.1223,85.09,85.1223,2276
171,85.08,85.09,85.07,85.09,905
172,85.06,85.07,85.06,85.07,1105
173,85.08,85.08,85.04,85.05,2400
174,85.05,85.09,85.05,85.09,1200
175,85.02,85.03,84.98,85.03,1850
176,85.05,85.05,85.0101,85.04,3312
177,85.04,85.08,85.04,85.05,3131
178,85.06,85.1,85.0301,85.0301,1908
179,85.06,85.07,85.05,85.07,1872
180,84.99,85.04,84.99,85.03,3800
181,85.02,85.02,84.99,85.005,1366
182,85,85.04,84.99,84.99,4506
183,85,85,84.99,84.9917,2261
184,85,85,84.96,84.97,3951
185,84.99,85.01,84.99,84.99,5600
186,84.95,84.99,84.95,84.99,7267
187,85,85,84.94,84.95,2300
188,84.97,85,84.96,85,1513
189,84.99,84.99,84.94,84.96,2415
190,85.03,85.03,84.98,84.99,5577
191,85.04,85.04,85.0267,85.0267,2179
192,84.99,85.02,84.99,85.02,3805
193,85.025,85.03,85,85,2601
194,85.02,85.03,85.01,85.02,2243
195,85.01,85.03,85.01,85.01,1600
196,84.99,85.01,84.99,85.01,2700
197,85,85,84.98,84.99,6437
198,85.01,85.02,85.01,85.01,2845
199,85.02,85.02,85,85.01,12900
200,85,85.01,85,85.01,3669
201,85.06,85.09,85,85,6832
202,85.05,85.06,85.05,85.06,1996
203,85.02,85.06,85.02,85.06,2000
204,85.05,85.06,85.03,85.03,1618
205,85.06,85.08,85.06,85.06,1800
206,85.06,85.08,85.05,85.06,2322
207,85.08,85.08,85.06,85.06,1244
208,85.05,85.08,85.05,85.08,1900
209,85.06,85.08,85.04,85.04,1200
210,85.07,85.08,85.05,85.08,1100
211,85.11,85.11,85.07,85.07,3302
212,85.13,85.13,85.09,85.1,2654
213,85.12,85.13,85.1,85.13,900
214,85.09,85.1,85.09,85.1,1300
215,85.09,85.11,85.0876,85.09,1600
216,85.13,85.13,85.1,85.12,1200
217,85.0905,85.13,85.0905,85.13,2100
218,85.13,85.14,85.11,85.11,1200
219,85.15,85.17,85.14,85.14,1500
220,85.14,85.17,85.14,85.155,1440
221,85.12,85.15,85.12,85.14,2000
222,85.13,85.13,85.12,85.12,1301
223,85.16,85.16,85.13,85.16,1000
224,85.12,85.12,85.1,85.12,900
225,85.14,85.16,85.13,85.14,1300
226,85.1235,85.14,85.12,85.13,1100
227,85.14,85.14,85.12,85.12,1700
228,85.14,85.16,85.13,85.15,2978
229,85.12,85.135,85.1,85.13,3134
230,85.04,85.1,85.03,85.1,7906
231,85.04,85.04,85.02,85.04,4674
232,85.01,85.04,85.01,85.04,3361
233,85.05,85.06,85.01,85.01,9750
234,85.0755,85.0755,85.03,85.05,4310
235,85.07,85.09,85.05,85.08,2000
236,85.08,85.08,85.06,85.08,2600
237,85.12,85.12,85.09,85.09,2120
238,85.13,85.14,85.1103,85.12,1621
239,85.1,85.14,85.09,85.14,2300
240,85.08,85.09,85.07,85.08,1300
241,85.08,85.09,85.06,85.08,1400
242,85.105,85.105,85.07,85.08,1700
243,85.11,85.12,85.11,85.12,1450
244,85.06,85.12,85.06,85.11,2096
245,85.07,85.07,85.05,85.06,3500
246,85.09,85.1,85.06,85.07,3850
247,85.12,85.12,85.07,85.1,3500
248,85.08,85.12,85.08,85.09,4088
249,85.1219,85.1219,85.11,85.11,1000
250,85.095,85.13,85.095,85.13,600
251,85.11,85.11,85.09,85.11,1500
252,85.11,85.12,85.1,85.12,1310
253,85.14,85.14,85.09,85.1,3310
254,85.15,85.15,85.15,85.15,200
255,85.16,85.16,85.12,85.135,2900
256,85.16,85.17,85.14,85.16,2100
257,85.14,85.17,85.14,85.17,3226
258,85.15,85.18,85.13,85.18,2400
259,85.17,85.17,85.15,85.15,1600
260,85.17,85.17,85.13,85.17,2850
261,85.16,85.17,85.14,85.17,1400
262,85.152,85.18,85.15,85.16,3648
263,85.1,85.19,85.1,85.19,2100
264,85.07,85.11,85.07,85.091,4138
265,85.04,85.08,85.04,85.06,2022
266,85,85.07,84.99,85.03,3239
267,85.04,85.04,85,85.01,3350
268,85.04,85.04,85,85.03,4757
269,85.05,85.05,85.04,85.05,811
270,85.03,85.05,85.01,85.05,6958
271,84.99,85.04,84.99,85.035,22203
272,84.99,85.02,84.99,84.99,4224
273,84.99,85,84.95,84.99,11543
274,84.97,84.999,84.97,84.999,1900
275,84.96,84.96,84.96,84.96,905
276,84.945,84.97,84.94,84.97,9137
277,84.95,84.96,84.93,84.945,18139
278,84.94,84.95,84.93,84.95,1495
279,84.9,84.95,84.89,84.95,4183
280,84.89,84.89,84.88,84.89,7200
281,84.94,84.94,84.9,84.9,6000
282,84.99,84.99,84.94,84.95,4326
283,85.02,85.02,85,85,1900
284,85,85.03,85,85.03,2200
285,85.01,85.01,84.99,84.99,1918
286,85,85.04,85,85.02,1700
287,84.99,85,84.97,85,20065
288,84.94,84.99,84.92,84.99,3000
289,84.93,84.95,84.92,84.94,4850
290,84.92,84.935,84.91,84.935,1022
291,84.91,84.935,84.91,84.93,1558
292,84.95,84.96,84.92,84.93,6100
293,84.9635,84.97,84.94,84.94,1385
294,84.97,84.97,84.95,84.95,1429
295,85,85,84.95,84.95,3767
296,85,85.01,84.97,84.9868,10416
297,84.98,85.005,84.98,85,3074
298,85,85,84.99,85,3795
299,84.98,85,84.98,85,2995
300,84.98,85.02,84.98,84.99,12523
301,84.99,85,84.98,84.98,7577
302,85,85.01,84.98,85,11186
303,84.995,85.01,84.995,85,3850
304,84.99,85.005,84.99,85,2500
305,84.98,85,84.97,84.99,2891
306,84.98,85,84.98,84.99,5800
307,84.96,84.97,84.96,84.97,1312
308,84.97,84.97,84.97,84.97,1700
309,84.99,84.99,84.97,84.97,1800
310,84.96,84.98,84.95,84.98,4249
311,84.93,84.95,84.93,84.95,3150
312,84.94,84.95,84.93,84.94,7400
313,84.9536,84.96,84.94,84.95,2700
314,84.9499,84.96,84.94,84.95,3655
315,84.95,84.96,84.95,84.95,2800
316,84.96,84.96,84.96,84.96,400
317,84.96,84.97,84.95,84.95,3700
318,84.95,84.96,84.94,84.96,2116
319,84.93,84.96,84.93,84.9476,4846
320,84.94,84.94,84.9186,84.94,4453
321,84.95,84.95,84.92,84.94,10450
322,84.93,84.95,84.93,84.94,10040
323,84.91,84.93,84.91,84.93,5100
324,84.93,84.93,84.92,84.92,2807
325,84.94,84.96,84.94,84.94,2340
326,84.96,84.96,84.94,84.96,5060
327,84.95,84.96,84.95,84.96,1500
328,84.97,84.97,84.94,84.94,2816
329,84.97,84.98,84.95,84.97,2100
330,85,85,84.97,84.97,4400
331,85.03,85.03,84.99,84.99,3658
332,85.04,85.05,85.02,85.03,3573
333,85.05,85.05,85.035,85.04,4650
334,84.97,85.04,84.97,85.04,3529
335,84.92,84.955,84.91,84.95,2343
336,84.94,84.95,84.92,84.93,2600
337,84.935,84.96,84.935,84.95,2635
338,84.9,84.94,84.9,84.92,2003
339,84.94,84.94,84.9,84.9,2914
340,84.935,84.94,84.92,84.94,2200
341,84.88,84.94,84.88,84.94,3139
342,84.91,84.91,84.87,84.87,4206
343,84.92,84.94,84.92,84.92,4550
344,84.94,84.94,84.91,84.93,790
345,84.9,84.92,84.88,84.91,2810
346,84.86,84.89,84.86,84.88,2800
347,84.835,84.85,84.82,84.85,8095
348,84.83,84.84,84.83,84.84,3300
349,84.82,84.84,84.82,84.83,6306
350,84.8,84.83,84.8,84.815,5998
351,84.83,84.83,84.8,84.805,7200
352,84.82,84.84,84.82,84.83,5821
353,84.815,84.84,84.81,84.82,4900
354,84.82,84.83,84.815,84.82,6187
355,84.78,84.82,84.78,84.82,5800
356,84.78,84.78,84.78,84.78,1700
357,84.76,84.77,84.75,84.76,6556
358,84.8,84.8,84.765,84.77,6820
359,84.805,84.81,84.79,84.81,15814
360,84.815,84.82,84.8,84.805,6747
361,84.82,84.84,84.81,84.82,7290
362,84.78,84.815,84.78,84.815,15665
363,84.83,84.83,84.78,84.78,6345
364,84.8004,84.84,84.79,84.83,2525
365,84.77,84.81,84.77,84.78,4400
366,84.7,84.77,84.7,84.77,2968
367,84.695,84.72,84.685,84.705,3900
368,84.66,84.695,84.65,84.695,15569
369,84.68,84.69,84.65,84.68,5652
370,84.65,84.68,84.62,84.675,8570
371,84.63,84.65,84.61,84.635,5150
372,84.66,84.66,84.63,84.65,7460
373,84.65,84.661,84.65,84.66,3190
374,84.6,84.66,84.6,84.66,9407
375,84.62,84.65,84.605,84.61,11291
376,84.63,84.64,84.59,84.62,9977
377,84.59,84.64,84.59,84.62,9330
378,84.55,84.61,84.55,84.58,9529
379,84.55,84.58,84.55,84.56,13433
380,84.57,84.57,84.53,84.54,16549
381,84.6,84.61,84.56,84.56,16277
382,84.54,84.6,84.53,84.6,12642
383,84.56,84.57,84.53,84.53,13027
384,84.57,84.59,84.54,84.56,12191
385,84.55,84.58,84.54,84.58,12596
386,84.53,84.55,84.52,84.54,24106
387,84.515,84.54,84.5,84.53,26435
388,84.485,84.53,84.485,84.52,27137
389,84.48,84.5,84.46,84.48,36178
390,84.52,84.52,84.46,84.48,54277
