PPG,PPG Industries,Materials,8,Specialty Chemicals,26604645394,1561904
a1503667800,103.98,103.98,103.98,103.98,9568
3,103.6284,103.84,103.6,103.84,4293
5,103.72,103.75,103.63,103.69,2000
6,103.68,103.8,103.62,103.62,2347
7,103.38,103.79,103.38,103.79,12384
8,103.29,103.455,103.23,103.38,7256
9,103.35,103.36,103.295,103.295,2050
10,103.35,103.36,103.35,103.36,200
11,103.5,103.5,103.36,103.375,1400
12,103.34,103.51,103.34,103.51,700
14,103.39,103.47,103.39,103.42,1600
15,103.42,103.42,103.42,103.42,200
16,103.47,103.49,103.43,103.45,1500
17,103.59,103.63,103.47,103.48,2101
18,103.52,103.58,103.52,103.55,300
19,103.5,103.545,103.5,103.545,500
20,103.5589,103.5589,103.5,103.53,595
21,103.725,103.725,103.59,103.59,2154
22,103.67,103.67,103.67,103.67,400
23,103.75,103.82,103.74,103.74,2000
25,103.82,103.83,103.8,103.82,1000
26,103.8,103.835,103.75,103.82,2600
27,103.82,103.82,103.82,103.82,100
28,103.86,103.865,103.8,103.8,600
29,103.92,103.92,103.92,103.92,100
30,103.865,103.89,103.86,103.86,600
31,103.95,103.95,103.86,103.86,1100
32,103.95,104.03,103.95,104,900
33,103.92,103.94,103.92,103.94,300
34,103.87,103.94,103.87,103.94,2049
35,103.87,103.87,103.8301,103.8301,200
36,103.96,103.96,103.91,103.91,1300
37,104.06,104.09,103.98,103.98,900
38,103.99,104.08,103.99,104.06,1465
39,103.9995,104,103.96,103.96,1002
40,104.02,104.03,103.99,104,1600
41,103.98,104.03,103.98,104.02,1000
42,104.05,104.05,103.95,103.98,700
43,104.04,104.07,104.04,104.07,800
44,103.98,104.03,103.98,104.03,600
45,104.005,104.02,103.975,104,990
46,104.01,104.01,104.01,104.01,200
47,104.02,104.02,103.9963,103.9963,1010
48,104.01,104.01,104.01,104.01,100
49,104.03,104.06,104.03,104.04,1527
50,104.06,104.07,104.03,104.06,1350
51,104.035,104.035,104.035,104.035,100
52,103.94,104.01,103.91,104.01,1600
53,103.9,103.925,103.9,103.91,520
54,103.83,103.86,103.81,103.86,1041
55,103.84,103.85,103.76,103.81,3600
56,103.82,103.84,103.81,103.84,724
57,103.87,103.9,103.84,103.84,2000
58,103.88,103.885,103.88,103.885,300
59,103.87,103.87,103.87,103.87,100
60,103.89,103.97,103.89,103.9,2100
61,103.935,103.935,103.9,103.91,600
62,103.8876,103.89,103.87,103.89,750
63,103.86,103.8849,103.86,103.8849,1670
64,103.83,103.86,103.83,103.86,536
66,103.835,103.835,103.835,103.835,100
67,103.94,103.94,103.87,103.87,1812
68,103.9009,103.97,103.9,103.97,970
69,103.86,103.91,103.86,103.91,600
70,103.87,103.87,103.87,103.87,100
71,103.895,103.9,103.87,103.9,1400
72,103.87,103.87,103.87,103.87,300
73,103.84,103.85,103.84,103.85,200
74,103.835,103.835,103.82,103.82,200
75,103.78,103.83,103.78,103.83,400
76,103.78,103.78,103.77,103.77,300
77,103.75,103.7826,103.74,103.7826,3300
78,103.79,103.79,103.76,103.77,854
79,103.8,103.8,103.75,103.785,1325
80,103.72,103.81,103.72,103.81,1000
81,103.7599,103.76,103.7599,103.76,500
82,103.85,103.87,103.75,103.76,1700
83,103.86,103.86,103.83,103.85,500
84,103.85,103.85,103.85,103.85,300
85,103.8,103.82,103.8,103.82,506
86,103.82,103.82,103.82,103.82,300
87,103.81,103.82,103.79,103.82,1832
88,103.82,103.82,103.82,103.82,100
90,103.83,103.84,103.81,103.81,1410
91,103.73,103.82,103.73,103.82,1302
94,103.8,103.8,103.75,103.75,1800
95,103.75,103.84,103.75,103.84,1490
96,103.74,103.74,103.72,103.72,300
97,103.73,103.7468,103.72,103.7468,600
98,103.74,103.76,103.74,103.74,2005
99,103.78,103.78,103.755,103.76,700
100,103.77,103.78,103.77,103.78,599
101,103.78,103.78,103.78,103.78,100
102,103.77,103.8,103.75,103.75,2305
103,103.781,103.781,103.781,103.781,125
104,103.8,103.8,103.74,103.77,400
105,103.78,103.78,103.74,103.76,2100
106,103.72,103.76,103.72,103.76,600
107,103.75,103.75,103.75,103.75,200
108,103.77,103.79,103.77,103.78,300
109,103.7775,103.8099,103.76,103.8099,625
111,103.64,103.77,103.64,103.77,1550
113,103.7,103.73,103.65,103.65,2000
115,103.71,103.7225,103.71,103.7225,200
116,103.72,103.72,103.71,103.72,1020
117,103.75,103.75,103.73,103.73,700
119,103.73,103.73,103.73,103.73,100
120,103.765,103.765,103.765,103.765,100
121,103.7264,103.76,103.7264,103.76,1238
122,103.755,103.76,103.73,103.75,1700
123,103.74,103.74,103.73,103.74,300
124,103.72,103.74,103.72,103.73,500
125,103.71,103.71,103.7,103.7,300
126,103.82,103.82,103.71,103.73,1100
127,103.78,103.82,103.78,103.81,471
128,103.7952,103.7952,103.7884,103.7884,845
129,103.805,103.81,103.8,103.8,726
130,103.78,103.81,103.77,103.81,400
132,103.84,103.85,103.82,103.83,1300
133,103.83,103.84,103.83,103.83,400
134,103.85,103.85,103.83,103.85,800
135,103.83,103.87,103.83,103.85,900
137,103.81,103.83,103.81,103.82,600
139,103.83,103.83,103.82,103.83,900
140,103.88,103.88,103.85,103.85,500
141,103.82,103.88,103.82,103.88,1463
142,103.79,103.83,103.79,103.83,600
143,103.79,103.79,103.79,103.79,100
144,103.81,103.81,103.81,103.81,200
145,103.78,103.78,103.78,103.78,200
146,103.74,103.76,103.74,103.74,1800
147,103.74,103.76,103.74,103.742,2315
148,103.75,103.76,103.74,103.75,1900
150,103.76,103.76,103.76,103.76,100
151,103.76,103.76,103.75,103.76,1100
153,103.78,103.78,103.78,103.78,200
154,103.8,103.8,103.77,103.77,1700
155,103.82,103.82,103.805,103.81,800
156,103.82,103.83,103.81,103.83,1100
157,103.8,103.81,103.8,103.81,500
158,103.83,103.83,103.8,103.8,300
159,103.84,103.84,103.83,103.83,200
160,103.84,103.84,103.82,103.82,200
161,103.86,103.86,103.86,103.86,100
162,103.83,103.85,103.83,103.85,1334
163,103.82,103.82,103.82,103.82,100
164,103.8,103.8284,103.8,103.8284,1237
165,103.79,103.8,103.79,103.8,800
167,103.76,103.78,103.76,103.78,500
168,103.76,103.76,103.73,103.75,1656
169,103.72,103.75,103.72,103.75,507
170,103.74,103.74,103.74,103.74,300
171,103.77,103.78,103.75,103.75,1103
172,103.79,103.79,103.75,103.77,800
173,103.83,103.83,103.8,103.8,200
174,103.83,103.83,103.83,103.83,100
176,103.85,103.87,103.85,103.87,868
177,103.86,103.86,103.85,103.86,1200
178,103.83,103.84,103.83,103.84,700
179,103.86,103.86,103.83,103.83,985
180,103.84,103.84,103.83,103.83,300
182,103.82,103.83,103.82,103.83,400
184,103.83,103.86,103.83,103.86,1084
185,103.84,103.85,103.83,103.85,900
186,103.88,103.89,103.85,103.86,1300
187,103.87,103.9,103.87,103.89,1400
188,103.865,103.865,103.865,103.865,109
189,103.835,103.85,103.835,103.85,700
190,103.875,103.875,103.85,103.85,916
191,103.88,103.88,103.88,103.88,200
192,103.88,103.9,103.88,103.8812,1231
193,103.87,103.87,103.87,103.87,100
195,103.85,103.87,103.85,103.87,600
196,103.83,103.84,103.83,103.84,400
197,103.83,103.849,103.82,103.849,1424
198,103.845,103.86,103.84,103.84,6400
199,103.86,103.86,103.84,103.85,400
200,103.9,103.9099,103.87,103.87,1801
201,103.91,103.92,103.89,103.9,700
202,103.93,103.93,103.93,103.93,300
203,103.948,103.948,103.948,103.948,600
204,103.94,103.94,103.94,103.94,100
206,103.93,103.9301,103.93,103.93,800
207,103.95,103.96,103.94,103.94,400
208,103.95,103.95,103.95,103.95,100
209,103.95,103.95,103.94,103.94,364
210,103.95,103.95,103.95,103.95,103
211,103.94,103.98,103.93,103.96,1701
212,103.93,103.94,103.92,103.93,5067
213,103.93,103.93,103.93,103.93,606
215,103.92,103.92,103.91,103.91,500
216,103.93,103.94,103.9,103.9,900
218,103.95,103.95,103.94,103.94,1311
220,103.97,103.97,103.97,103.97,100
221,103.95,103.96,103.95,103.96,500
222,103.95,103.95,103.94,103.9496,600
223,103.94,103.95,103.93,103.95,500
224,103.95,103.95,103.95,103.95,200
226,103.9304,103.95,103.9304,103.95,411
229,103.94,103.941,103.93,103.93,1300
231,103.9414,103.95,103.93,103.95,660
233,103.95,103.971,103.945,103.945,2200
234,103.965,103.965,103.96,103.96,300
235,103.97,103.97,103.97,103.97,200
236,103.92,103.965,103.92,103.96,2018
237,103.94,103.94,103.94,103.94,100
238,103.97,103.97,103.94,103.94,700
239,103.95,103.97,103.95,103.97,400
241,103.97,103.97,103.97,103.97,200
243,103.97,103.9912,103.97,103.9912,700
244,103.98,104,103.98,104,400
246,103.98,103.98,103.98,103.98,100
247,103.97,103.99,103.95,103.99,1677
248,103.97,103.97,103.9628,103.9628,320
249,103.97,103.9735,103.97,103.9735,500
250,103.9798,103.9798,103.96,103.97,525
251,103.99,103.99,103.96,103.98,3484
253,103.97,103.97,103.97,103.97,100
255,103.97,104,103.97,104,600
257,103.96,103.96,103.96,103.96,300
258,103.95,103.96,103.95,103.96,400
259,103.95,103.97,103.95,103.9678,1820
261,103.9828,103.99,103.95,103.95,1993
262,103.98,103.98,103.97,103.97,350
264,104,104,103.99,103.99,300
265,103.98,103.99,103.98,103.99,900
266,103.99,103.99,103.99,103.99,100
267,103.95,103.98,103.95,103.98,1778
269,103.89,103.94,103.89,103.94,2120
270,103.9,103.9,103.89,103.89,225
271,103.89,103.92,103.89,103.91,1950
273,103.92,103.92,103.8999,103.8999,816
274,103.94,103.94,103.93,103.93,1034
275,103.94,103.94,103.94,103.94,100
277,103.94,103.96,103.94,103.95,1940
278,103.97,103.97,103.96,103.96,600
279,103.98,103.98,103.97,103.97,700
280,103.99,103.99,103.99,103.99,500
281,104,104.02,103.99,103.99,2610
282,104.01,104.01,103.99,104,3167
283,103.99,104.04,103.99,104.03,2200
284,103.98,103.989,103.98,103.9836,423
285,104.02,104.04,103.97,103.97,3244
286,104.04,104.04,104.04,104.04,102
288,104.03,104.03,104.03,104.03,100
290,104.03,104.05,104.02,104.05,2240
293,104.03,104.04,104.02,104.03,600
294,104.02,104.02,104.02,104.02,300
296,103.98,104.02,103.97,104.0139,7733
297,103.96,103.98,103.94,103.98,3186
298,103.98,103.98,103.97,103.97,1060
299,104,104,103.99,103.99,900
301,104.0001,104.03,104.0001,104.01,1559
302,104.02,104.04,104.02,104.025,1300
303,103.98,104.02,103.98,104.02,2300
304,103.99,103.99,103.97,103.97,300
305,103.98,103.98,103.98,103.98,200
306,103.98,103.98,103.98,103.98,300
308,103.95,103.97,103.95,103.97,1031
309,103.975,103.98,103.95,103.95,744
310,103.98,103.98,103.96,103.96,1058
311,103.98,103.99,103.98,103.98,500
312,103.95,104,103.93,103.99,3337
313,103.94,103.96,103.94,103.96,1160
314,103.94,103.96,103.94,103.95,1000
316,103.94,103.94,103.93,103.93,400
317,103.95,103.95,103.93,103.93,600
318,103.93,103.955,103.93,103.955,400
319,103.9412,103.9412,103.93,103.931,1120
320,103.935,103.94,103.93,103.94,500
321,103.95,103.95,103.93,103.94,2300
322,103.94,103.94,103.94,103.94,747
323,103.93,103.949,103.93,103.94,802
324,103.94,103.94,103.93,103.935,900
325,103.94,103.94,103.94,103.94,400
326,103.935,103.935,103.93,103.93,1100
327,103.92,103.93,103.92,103.93,800
328,103.93,103.94,103.93,103.93,600
329,103.93,103.93,103.93,103.93,600
330,103.94,103.94,103.93,103.94,400
331,103.94,103.94,103.93,103.93,1500
332,103.93,103.94,103.92,103.94,842
333,103.94,103.94,103.93,103.93,742
334,103.86,103.93,103.86,103.93,2900
335,103.86,103.86,103.86,103.86,700
336,103.87,103.87,103.87,103.87,1000
337,103.85,103.86,103.85,103.86,1309
339,103.89,103.9,103.86,103.86,3350
340,103.89,103.91,103.87,103.89,3236
341,103.885,103.89,103.87,103.87,1300
342,103.92,103.94,103.89,103.89,2879
343,103.94,103.94,103.93,103.94,775
344,103.9273,103.94,103.9273,103.94,1356
345,103.895,103.93,103.895,103.93,1600
346,103.89,103.895,103.89,103.895,300
347,103.87,103.9099,103.87,103.9099,775
348,103.89,103.9,103.86,103.88,3092
349,103.89,103.89,103.89,103.89,500
350,103.91,103.91,103.8999,103.8999,1500
351,103.94,103.94,103.915,103.92,2100
352,103.92,103.94,103.92,103.94,1452
353,103.92,103.93,103.91,103.93,2968
354,103.9009,103.9009,103.8991,103.9,1246
355,103.9091,103.93,103.9091,103.91,2105
356,103.87,103.91,103.87,103.91,900
357,103.88,103.89,103.88,103.89,501
358,103.8999,103.8999,103.87,103.88,700
359,103.9045,103.9045,103.89,103.89,1727
360,103.89,103.91,103.89,103.91,590
361,103.88,103.91,103.88,103.91,1218
362,103.89,103.89,103.89,103.89,200
363,103.9,103.9,103.89,103.89,1680
364,103.87,103.9,103.87,103.9,3940
365,103.88,103.88,103.87,103.87,800
366,103.8799,103.88,103.87,103.87,2108
367,103.9,103.9,103.88,103.88,2638
368,103.87,103.91,103.87,103.9,3203
369,103.8803,103.92,103.87,103.87,1562
370,103.91,103.91,103.89,103.9099,2443
371,103.92,103.92,103.9,103.9,1104
372,103.97,103.97,103.93,103.93,2400
373,103.96,103.975,103.96,103.97,3112
374,103.9268,103.97,103.9268,103.97,1714
375,103.87,103.92,103.87,103.92,2787
376,103.87,103.89,103.86,103.86,2624
377,103.88,103.8827,103.87,103.8827,1146
378,103.89,103.9,103.89,103.89,1258
379,103.9,103.9,103.89,103.89,600
380,103.94,103.94,103.9,103.9,4644
381,103.9,103.92,103.89,103.92,1660
382,103.9,103.91,103.9,103.91,700
383,103.92,103.93,103.89,103.9,3576
384,103.92,103.93,103.91,103.92,800
385,103.9,103.92,103.9,103.91,2000
386,103.865,103.9,103.86,103.9,5323
387,103.85,103.88,103.85,103.8601,6253
388,103.84,103.86,103.84,103.86,2400
389,103.77,103.85,103.77,103.85,16663
390,103.71,103.78,103.68,103.78,42708
